-345
-345
-344
-344
-343
-343
-343
-344
-344
-344
-345
-345
-345
-344
-344
-344
-344
-344
-345
-345
-345
-345
-344
-344
-345
-346
-346
-346
-346
-345
-344
-343
-342
-342
-343
-342
-342
-341
-340
-340
-340
-341
-341
-341
-341
-343
-345
-341
-340
-350
-343
-330
-358
-347
-170
32
50
-4
12
-47
-262
-448
-485
-453
-428
-413
-407
-406
-405
-402
-398
-395
-393
-391
-388
-385
-382
-379
-376
-373
-371
-368
-365
-361
-356
-352
-347
-344
-339
-334
-330
-325
-321
-317
-312
-308
-306
-305
-303
-303
-304
-305
-307
-309
-312
-315
-319
-321
-325
-328
-331
-334
-337
-340
-343
-347
-350
-353
-354
-355
-356
-356
-356
-356
-356
-356
-356
-357
-357
-357
-357
-357
-357
-357
-358
-359
-358
-356
-355
-355
-356
-356
-356
-357
-357
-357
-357
-359
-359
-359
-359
-359
-359
-360
-360
-360
-360
-361
-361
-361
-361
-361
-361
-360
-360
-360
-360
-358
-358
-358
-359
-360
-360
-360
-360
-359
-358
-357
-355
-353
-353
-353
-353
-353
-353
-353
-353
-353
-352
-351
-350
-349
-348
-347
-346
-346
-346
-346
-345
-345
-344
-344
-344
-343
-344
-344
-344
-345
-345
-345
-344
-343
-343
-344
-344
-345
-345
-345
-345
-346
-346
-346
-346
-345
-345
-346
-346
-345
-345
-345
-344
-343
-344
-345
-345
-344
-343
-343
-342
-342
-342
-342
-341
-341
-341
-340
-340
-341
-341
-342
-342
-342
-343
-343
-343
-344
-343
-343
-344
-344
-343
-344
-344
-340
-344
-350
-334
-335
-368
-294
-71
68
28
1
13
-120
-354
-482
-477
-442
-421
-409
-405
-404
-403
-402
-400
-398
-396
-394
-390
-386
-383
-380
-377
-374
-371
-368
-363
-359
-356
-352
-349
-344
-339
-335
-331
-325
-319
-315
-310
-307
-304
-303
-302
-303
-305
-308
-311
-313
-316
-319
-321
-325
-329
-333
-337
-341
-345
-348
-352
-355
-359
-361
-363
-365
-366
-365
-364
-363
-362
-361
-362
-363
-364
-364
-363
-363
-362
-361
-361
-362
-364
-366
-367
-367
-367
-367
-366
-365
-366
-366
-365
-365
-365
-365
-365
-366
-366
-366
-366
-366
-366
-366
-366
-367
-366
-366
-366
-366
-367
-368
-368
-368
-368
-367
-366
-366
-366
-366
-366
-367
-367
-367
-366
-365
-363
-363
-363
-363
-362
-361
-360
-358
-357
-356
-355
-353
-352
-351
-350
-350
-349
-349
-349
-349
-349
-350
-349
-348
-347
-347
-347
-347
-347
-347
-347
-347
-347
-347
-347
-347
-347
-347
-348
-348
-347
-347
-347
-347
-347
-347
-347
-347
-347
-346
-346
-347
-346
-346
-345
-346
-346
-345
-343
-343
-342
-342
-342
-344
-344
-345
-345
-345
-344
-344
-344
-344
-345
-345
-344
-344
-344
-344
-345
-344
-345
-348
-345
-343
-351
-349
-333
-353
-362
-214
4
58
0
6
-24
-219
-427
-490
-463
-434
-417
-409
-408
-408
-406
-402
-400
-397
-395
-391
-389
-386
-382
-379
-377
-374
-371
-366
-361
-357
-354
-349
-344
-339
-334
-330
-325
-321
-319
-316
-312
-309
-306
-304
-305
-306
-307
-309
-311
-312
-315
-317
-320
-324
-328
-332
-336
-340
-343
-346
-349
-353
-356
-357
-358
-360
-360
-359
-359
-360
-360
-360
-360
-360
-359
-358
-359
-360
-360
-358
-359
-358
-357
-357
-358
-358
-359
-360
-361
-361
-362
-361
-361
-360
-360
-359
-359
-360
-361
-361
-361
-361
-360
-359
-360
-361
-361
-361
-362
-363
-364
-364
-364
-364
-364
-363
-362
-361
-361
-360
-360
-360
-360
-360
-359
-359
-358
-356
-356
-354
-353
-352
-351
-349
-349
-348
-347
-347
-347
-347
-347
-347
-347
-347
-346
-346
-346
-345
-345
-345
-345
-347
-348
-348
-347
-347
-346
-346
-345
-345
-345
-346
-346
-345
-346
-345
-345
-345
-345
-345
-345
-345
-346
-347
-346
-346
-347
-348
-347
-347
-347
-347
-346
-345
-345
-346
-346
-345
-345
-345
-345
-346
-346
-346
-346
-346
-345
-345
-344
-344
-344
-343
-342
-343
-344
-344
-346
-348
-343
-343
-351
-340
-332
-366
-326
-121
54
39
-5
14
-80
-310
-470
-485
-450
-427
-414
-409
-408
-406
-405
-402
-400
-398
-396
-393
-390
-387
-385
-382
-378
-376
-372
-367
-361
-357
-352
-348
-345
-341
-337
-333
-328
-324
-319
-314
-311
-309
-307
-305
-306
-308
-311
-313
-314
-316
-317
-319
-321
-324
-328
-334
-339
-342
-346
-350
-353
-355
-358
-359
-359
-359
-359
-359
-359
-360
-361
-361
-361
-361
-361
-361
-361
-361
-361
-360
-361
-360
-360
-360
-360
-360
-360
-360
-360
-360
-360
-360
-360
-360
-360
-360
-360
-360
-361
-361
-361
-361
-362
-363
-364
-365
-365
-365
-364
-364
-365
-364
-364
-365
-365
-364
-364
-363
-363
-364
-364
-364
-364
-363
-361
-360
-359
-358
-357
-357
-357
-356
-355
-354
-354
-352
-352
-351
-350
-349
-349
-349
-349
-349
-348
-348
-348
-347
-346
-345
-343
-344
-346
-347
-347
-348
-348
-348
-348
-346
-346
-347
-347
-347
-348
-348
-348
-349
-348
-348
-348
-347
-346
-345
-345
-345
-346
-347
-347
-347
-346
-346
-347
-348
-347
-347
-346
-346
-346
-345
-346
-346
-345
-345
-345
-345
-346
-346
-345
-345
-345
-343
-343
-343
-342
-342
-344
-344
-340
-347
-351
-334
-345
-371
-264
-40
60
7
-2
-4
-167
-391
-488
-470
-438
-419
-410
-407
-406
-406
-405
-402
-399
-396
-393
-391
-388
-384
-381
-379
-375
-371
-368
-364
-361
-357
-352
-348
-344
-339
-335
-331
-327
-324
-320
-315
-312
-309
-307
-306
-307
-308
-310
-313
-314
-315
-318
-321
-324
-328
-332
-337
-341
-344
-348
-351
-354
-357
-359
-360
-360
-361
-360
-359
-359
-358
-358
-359
-359
-360
-361
-361
-362
-361
-360
-361
-361
-362
-363
-363
-363
-363
-363
-361
-360
-360
-360
-360
-361
-360
-360
-360
-360
-360
-360
-360
-360
-360
-361
-362
-362
-362
-361
-361
-361
-361
-360
-358
-358
-357
-356
-356
-358
-359
-360
-360
-360
-359
-358
-356
-354
-354
-354
-353
-351
-351
-351
-350
-350
-350
-349
-348
-348
-348
-347
-347
-347
-346
-345
-345
-344
-345
-345
-345
-345
-344
-342
-342
-341
-341
-342
-343
-343
-344
-346
-346
-347
-346
-346
-346
-346
-345
-345
-344
-343
-344
-345
-345
-344
-345
-344
-344
-343
-342
-343
-343
-343
-343
-344
-344
-344
-344
-344
-345
-344
-343
-343
-343
-342
-343
-344
-346
-347
-347
-347
-346
-345
-342
-341
-340
-339
-340
-342
-338
-337
-346
-340
-325
-354
-345
-168
38
60
4
19
-38
-255
-445
-486
-454
-428
-413
-405
-403
-401
-398
-396
-394
-392
-390
-388
-386
-383
-381
-379
-376
-372
-369
-364
-360
-356
-352
-348
-345
-341
-337
-332
-326
-321
-317
-313
-309
-307
-304
-303
-303
-303
-305
-308
-310
-312
-314
-316
-318
-321
-325
-330
-335
-338
-341
-345
-348
-350
-353
-356
-356
-356
-356
-356
-355
-354
-354
-354
-353
-353
-354
-353
-353
-354
-353
-352
-352
-352
-351
-351
-351
-353
-354
-354
-353
-352
-350
-348
-348
-348
-349
-351
-352
-353
-353
-353
-353
-355
-355
-356
-356
-355
-354
-354
-354
-353
-354
-355
-355
-356
-357
-356
-356
-355
-353
-352
-351
-351
-352
-352
-351
-350
-349
-350
-350
-349
-348
-348
-347
-346
-345
-344
-342
-341
-339
-338
-339
-338
-338
-339
-339
-338
-338
-337
-337
-337
-336
-336
-335
-334
-334
-334
-334
-335
-337
-338
-338
-339
-340
-341
-341
-340
-339
-339
-338
-337
-336
-336
-337
-338
-337
-338
-338
-337
-335
-334
-334
-335
-336
-335
-335
-336
-335
-335
-334
-332
-332
-334
-334
-334
-335
-336
-336
-336
-335
-335
-335
-335
-334
-334
-334
-333
-334
-334
-330
-334
-341
-325
-325
-358
-287
-65
80
42
13
25
-103
-337
-469
-465
-430
-409
-399
-397
-399
-398
-396
-394
-393
-392
-390
-389
-389
-389
-388
-387
-384
-378
-371
-362
-352
-342
-332
-322
-314
-306
-299
-294
-290
-289
-292
-297
-306
-315
-324
-332
-338
-341
-342
-344
-345
-346
-346
-346
-346
-346
-345
-345
-345
-344
-343
-342
-341
-342
-342
-341
-340
-340
-339
-340
-340
-340
-340
-340
-340
-340
-339
-339
-340
-340
-339
-339
-338
-337
-337
-337
-337
-338
-338
-339
-340
-340
-339
-340
-340
-340
-339
-338
-337
-338
-338
-337
-336
-336
-336
-335
-334
-334
-334
-335
-335
-335
-335
-334
-333
-333
-331
-330
-330
-329
-330
-331
-331
-332
-333
-333
-333
-333
-332
-331
-330
-328
-328
-329
-329
-329
-330
-330
-330
-329
-329
-329
-329
-330
-330
-331
-330
-330
-329
-329
-328
-328
-328
-329
-330
-331
-332
-333
-333
-334
-334
-333
-333
-332
-332
-333
-333
-332
-331
-331
-330
-329
-328
-327
-328
-329
-328
-329
-330
-330
-331
-331
-330
-329
-328
-328
-329
-329
-329
-330
-331
-331
-332
-332
-333
-335
-337
-339
-343
-346
-347
-348
-348
-345
-340
-334
-328
-321
-314
-308
-302
-295
-287
-280
-274
-270
-271
-276
-286
-298
-309
-319
-327
-332
-333
-334
-335
-335
-336
-336
-337
-339
-340
-339
-339
-339
-338
-337
-335
-335
-336
-337
-337
-337
-337
-338
-338
-339
-339
-340
-340
-339
-339
-338
-337
-336
-336
-336
-338
-340
-340
-342
-342
-341
-341
-342
-342
-342
-341
-341
-341
-340
-339
-338
-339
-339
-339
-339
-339
-340
-340
-338
-338
-338
-338
-337
-338
-338
-339
-338
-338
-338
-337
-337
-337
-336
-336
-338
-338
-337
-337
-337
-337
-337
-337
-338
-339
-339
-339
-339
-338
-338
-337
-336
-336
-337
-338
-338
-340
-340
-341
-342
-341
-340
-340
-340
-340
-341
-341
-340
-340
-341
-341
-341
-341
-340
-340
-339
-339
-340
-340
-340
-341
-341
-340
-339
-339
-339
-338
-338
-338
-339
-339
-340
-342
-343
-342
-342
-342
-342
-342
-340
-340
-340
-339
-338
-338
-338
-339
-340
-341
-340
-340
-339
-339
-339
-338
-337
-337
-336
-336
-337
-338
-338
-339
-339
-339
-339
-338
-337
-337
-337
-337
-337
-337
-337
-337
-337
-338
-338
-338
-338
-338
-336
-335
-336
-336
-337
-337
-337
-337
-336
-335
-336
-335
-331
-338
-345
-328
-335
-366
-271
-42
77
28
12
16
-135
-369
-482
-469
-436
-418
-407
-404
-404
-402
-399
-396
-393
-391
-389
-386
-384
-382
-379
-375
-373
-371
-368
-366
-364
-362
-358
-352
-345
-336
-326
-317
-310
-302
-296
-290
-285
-282
-281
-281
-284
-290
-298
-307
-318
-328
-337
-344
-348
-351
-353
-353
-353
-353
-353
-353
-354
-354
-354
-355
-356
-356
-356
-356
-356
-356
-355
-354
-354
-354
-354
-354
-353
-354
-354
-354
-355
-355
-355
-355
-355
-355
-354
-354
-354
-355
-355
-353
-351
-351
-350
-351
-352
-353
-353
-354
-354
-355
-355
-355
-355
-355
-354
-355
-355
-355
-355
-354
-353
-353
-353
-353
-353
-353
-352
-353
-353
-352
-350
-350
-349
-349
-349
-348
-347
-347
-346
-347
-348
-348
-348
-347
-346
-345
-344
-343
-343
-343
-343
-344
-343
-341
-342
-342
-342
-342
-343
-342
-341
-340
-339
-339
-340
-341
-341
-342
-342
-342
-343
-343
-343
-342
-341
-341
-342
-341
-341
-342
-342
-343
-343
-343
-343
-343
-343
-344
-344
-344
-344
-344
-344
-344
-345
-343
-342
-341
-340
-339
-339
-339
-340
-340
-340
-340
-340
-341
-342
-343
-343
-344
-344
-345
-346
-343
-340
-348
-344
-328
-355
-356
-192
16
47
-11
-1
-48
-255
-449
-493
-455
-419
-395
-378
-368
-359
-349
-339
-330
-323
-321
-323
-329
-338
-349
-360
-369
-374
-375
-376
-375
-374
-374
-374
-373
-372
-371
-370
-368
-367
-366
-365
-364
-364
-365
-364
-363
-363
-362
-362
-362
-361
-361
-360
-359
-358
-358
-357
-356
-355
-356
-356
-357
-358
-358
-358
-358
-358
-357
-356
-355
-354
-354
-354
-354
-354
-354
-355
-354
-354
-354
-353
-350
-349
-348
-347
-347
-347
-348
-348
-348
-347
-348
-347
-346
-345
-345
-344
-344
-344
-345
-345
-346
-346
-347
-346
-345
-345
-344
-344
-344
-344
-345
-345
-345
-345
-346
-346
-344
-343
-343
-342
-342
-342
-342
-343
-343
-344
-344
-343
-342
-341
-340
-340
-341
-342
-342
-342
-342
-342
-343
-343
-343
-343
-343
-343
-344
-343
-343
-343
-343
-343
-343
-342
-342
-341
-340
-340
-341
-341
-341
-342
-343
-343
-344
-343
-343
-342
-341
-340
-340
-340
-341
-342
-344
-346
-349
-351
-354
-357
-358
-359
-360
-358
-353
-347
-338
-330
-322
-314
-307
-300
-293
-287
-282
-278
-279
-285
-295
-306
-319
-330
-339
-345
-346
-347
-347
-346
-346
-346
-346
-346
-347
-349
-349
-350
-350
-349
-349
-349
-350
-351
-351
-350
-350
-349
-349
-349
-349
-349
-351
-352
-352
-352
-352
-352
-353
-353
-352
-353
-353
-352
-351
-350
-350
-351
-351
-350
-350
-350
-349
-349
-350
-351
-352
-353
-354
-353
-352
-350
-350
-348
-348
-349
-349
-348
-349
-348
-347
-347
-347
-347
-347
-347
-345
-344
-344
-344
-344
-344
-343
-344
-344
-342
-341
-340
-341
-342
-342
-343
-343
-342
-341
-340
-339
-340
-340
-341
-341
-341
-342
-342
-342
-342
-342
-343
-343
-344
-344
-344
-343
-343
-342
-342
-342
-342
-342
-342
-342
-343
-343
-342
-342
-342
-342
-341
-341
-341
-342
-343
-343
-344
-344
-344
-344
-344
-343
-344
-344
-344
-344
-345
-344
-344
-345
-344
-343
-343
-344
-345
-346
-346
-347
-348
-348
-349
-351
-354
-357
-359
-360
-359
-355
-349
-342
-334
-325
-319
-312
-305
-298
-291
-284
-279
-280
-284
-293
-304
-317
-329
-338
-342
-344
-345
-346
-346
-347
-347
-347
-347
-347
-346
-346
-345
-346
-346
-347
-348
-350
-352
-354
-355
-354
-354
-354
-354
-353
-352
-352
-352
-352
-352
-353
-353
-353
-353
-353
-353
-354
-354
-353
-353
-353
-352
-352
-352
-352
-352
-353
-352
-352
-351
-351
-351
-351
-352
-352
-352
-352
-352
-352
-351
-351
-351
-350
-348
-348
-347
-346
-345
-345
-345
-345
-345
-345
-346
-346
-346
-346
-345
-345
-346
-345
-345
-344
-345
-345
-344
-343
-343
-343
-344
-346
-347
-347
-347
-347
-346
-347
-347
-347
-347
-346
-346
-346
-346
-346
-345
-345
-345
-345
-345
-345
-345
-345
-344
-345
-346
-346
-345
-346
-345
-344
-344
-343
-342
-342
-342
-343
-343
-343
-344
-345
-345
-344
-344
-344
-344
-345
-345
-345
-345
-345
-346
-345
-346
-347
-347
-346
-346
-347
-346
-346
-346
-345
-345
-344
-344
-346
-346
-347
-347
-346
-345
-344
-343
-342
-342
-343
-343
-344
-346
-347
-348
-348
-347
-347
-347
-346
-346
-345
-345
-345
-346
-346
-347
-347
-346
-346
-346
-345
-345
-348
-347
-342
-347
-353
-338
-342
-373
-287
-62
64
19
-2
4
-141
-373
-493
-487
-457
-440
-430
-424
-420
-412
-402
-391
-379
-368
-357
-347
-337
-329
-322
-316
-315
-319
-326
-336
-346
-356
-363
-367
-369
-368
-368
-368
-366
-365
-365
-365
-364
-363
-364
-365
-365
-365
-365
-364
-363
-362
-362
-362
-362
-363
-362
-363
-362
-361
-361
-360
-360
-360
-359
-358
-358
-358
-357
-357
-357
-357
-357
-357
-357
-358
-357
-356
-356
-356
-355
-356
-356
-356
-355
-354
-354
-354
-353
-352
-352
-352
-352
-353
-354
-353
-353
-353
-352
-352
-351
-351
-350
-350
-350
-350
-349
-349
-348
-347
-346
-347
-347
-347
-347
-346
-346
-346
-346
-347
-349
-349
-349
-348
-347
-346
-345
-344
-344
-345
-345
-345
-345
-345
-345
-346
-347
-348
-349
-350
-350
-350
-350
-351
-352
-352
-352
-352
-351
-351
-351
-351
-350
-351
-351
-350
-349
-348
-348
-348
-348
-348
-349
-348
-348
-348
-348
-347
-347
-346
-346
-345
-346
-346
-346
-347
-347
-348
-348
-348
-348
-347
-347
-349
-350
-350
-349
-350
-351
-352
-353
-356
-359
-361
-363
-363
-360
-356
-350
-342
-334
-327
-321
-314
-307
-299
-292
-286
-282
-282
-287
-296
-308
-321
-332
-340
-344
-346
-347
-348
-349
-349
-350
-351
-352
-352
-352
-352
-353
-352
-352
-352
-353
-352
-351
-350
-350
-351
-352
-352
-352
-353
-353
-354
-354
-354
-354
-353
-353
-354
-354
-354
-354
-354
-353
-353
-353
-353
-353
-353
-353
-354
-356
-356
-355
-355
-355
-355
-354
-354
-353
-353
-353
-353
-353
-353
-352
-351
-352
-352
-352
-352
-352
-351
-350
-350
-350
-349
-349
-349
-349
-348
-347
-347
-346
-346
-346
-346
-346
-347
-347
-347
-348
-348
-348
-348
-349
-348
-348
-348
-348
-348
-349
-349
-349
-349
-348
-348
-348
-349
-349
-349
-349
-350
-349
-348
-348
-349
-348
-348
-349
-349
-349
-350
-349
-348
-348
-348
-349
-350
-350
-350
-350
-350
-351
-351
-351
-351
-351
-351
-351
-350
-349
-349
-349
-348
-348
-349
-349
-348
-348
-348
-349
-352
-354
-356
-359
-361
-364
-366
-366
-362
-357
-350
-342
-334
-327
-321
-314
-306
-300
-292
-286
-283
-284
-290
-301
-314
-326
-336
-344
-348
-350
-350
-350
-350
-350
-350
-351
-352
-352
-351
-350
-350
-351
-351
-350
-350
-351
-352
-353
-354
-354
-354
-355
-355
-355
-355
-355
-354
-354
-355
-355
-355
-355
-356
-356
-356
-357
-357
-356
-356
-355
-355
-354
-354
-354
