-352
-353
-353
-352
-351
-350
-349
-349
-349
-349
-349
-348
-348
-349
-349
-349
-348
-348
-348
-348
-347
-348
-349
-348
-346
-345
-345
-346
-345
-346
-346
-347
-347
-348
-348
-348
-348
-347
-346
-347
-347
-341
-346
-353
-337
-342
-374
-287
-60
67
22
2
9
-136
-370
-488
-478
-445
-425
-413
-409
-409
-407
-405
-402
-401
-399
-397
-395
-392
-388
-384
-382
-380
-376
-374
-371
-367
-363
-358
-353
-349
-344
-338
-333
-327
-321
-317
-313
-311
-310
-309
-308
-309
-308
-309
-311
-313
-315
-318
-320
-323
-325
-328
-331
-336
-340
-344
-349
-353
-356
-358
-359
-359
-358
-358
-358
-357
-356
-355
-355
-356
-356
-356
-357
-357
-358
-357
-357
-357
-356
-355
-355
-355
-355
-354
-354
-355
-355
-355
-356
-357
-357
-357
-357
-357
-358
-358
-357
-356
-357
-357
-357
-357
-357
-357
-357
-357
-357
-358
-358
-358
-358
-358
-357
-356
-356
-356
-355
-355
-355
-355
-354
-354
-354
-355
-354
-353
-352
-351
-349
-348
-347
-347
-346
-345
-345
-345
-344
-344
-343
-342
-342
-342
-343
-343
-342
-342
-341
-341
-340
-339
-339
-339
-340
-342
-343
-344
-344
-344
-344
-343
-343
-343
-342
-342
-343
-343
-343
-342
-341
-340
-340
-340
-341
-342
-342
-342
-342
-342
-341
-340
-340
-341
-341
-340
-339
-339
-339
-338
-339
-340
-341
-340
-341
-341
-340
-339
-340
-340
-339
-339
-340
-339
-339
-341
-338
-336
-346
-343
-326
-350
-355
-194
28
73
12
22
-16
-222
-431
-489
-458
-430
-415
-408
-408
-408
-406
-404
-402
-400
-399
-396
-393
-391
-387
-383
-380
-378
-375
-371
-367
-362
-357
-353
-348
-343
-336
-331
-327
-322
-317
-312
-308
-306
-304
-303
-304
-306
-308
-310
-313
-316
-318
-320
-322
-325
-329
-334
-338
-343
-346
-349
-352
-354
-356
-357
-357
-357
-359
-359
-358
-358
-358
-357
-357
-356
-356
-356
-356
-357
-357
-358
-359
-359
-359
-359
-359
-359
-359
-360
-361
-361
-362
-363
-363
-362
-362
-364
-365
-365
-365
-365
-364
-362
-362
-363
-364
-363
-363
-364
-364
-363
-363
-363
-363
-364
-365
-365
-365
-365
-364
-364
-364
-363
-362
-362
-362
-361
-361
-360
-360
-359
-358
-357
-356
-356
-356
-356
-354
-354
-354
-352
-351
-351
-351
-350
-349
-350
-350
-351
-350
-349
-349
-349
-348
-347
-347
-348
-350
-351
-352
-352
-352
-352
-351
-351
-351
-352
-351
-352
-352
-352
-351
-350
-350
-350
-350
-350
-349
-349
-348
-348
-348
-349
-349
-350
-350
-351
-350
-349
-349
-349
-349
-349
-349
-350
-351
-351
-350
-351
-352
-352
-351
-351
-350
-350
-350
-349
-350
-352
-347
-349
-357
-344
-338
-372
-323
-112
55
33
-6
12
-91
-322
-475
-485
-451
-429
-417
-412
-413
-413
-411
-408
-406
-404
-402
-398
-395
-392
-389
-386
-383
-381
-377
-372
-367
-363
-359
-354
-351
-347
-341
-336
-330
-325
-321
-317
-313
-312
-311
-312
-312
-314
-316
-318
-321
-323
-325
-327
-330
-333
-337
-341
-346
-350
-353
-355
-358
-360
-361
-362
-363
-364
-364
-363
-363
-363
-364
-364
-364
-365
-365
-365
-364
-364
-364
-364
-364
-364
-364
-364
-364
-364
-364
-364
-363
-362
-363
-364
-365
-365
-365
-365
-365
-365
-366
-366
-366
-365
-366
-366
-366
-366
-365
-365
-365
-365
-365
-366
-367
-368
-368
-368
-368
-369
-368
-366
-366
-366
-365
-364
-364
-364
-363
-362
-361
-359
-358
-358
-357
-357
-357
-357
-357
-356
-355
-354
-353
-353
-352
-352
-352
-351
-350
-350
-350
-350
-350
-350
-350
-349
-349
-350
-350
-349
-349
-350
-351
-352
-352
-352
-353
-352
-351
-352
-352
-352
-352
-352
-352
-352
-351
-350
-350
-348
-347
-348
-348
-348
-348
-349
-349
-349
-349
-349
-349
-348
-348
-349
-350
-349
-350
-350
-350
-350
-350
-350
-350
-350
-350
-350
-349
-350
-352
-351
-347
-354
-356
-338
-351
-373
-253
-25
63
6
0
-10
-185
-410
-499
-478
-445
-427
-416
-413
-412
-410
-408
-405
-403
-402
-400
-397
-394
-391
-387
-384
-381
-378
-374
-369
-365
-361
-357
-353
-348
-344
-339
-334
-328
-323
-319
-316
-313
-311
-310
-310
-312
-313
-315
-318
-320
-322
-324
-327
-330
-333
-337
-343
-347
-350
-354
-358
-360
-362
-364
-365
-365
-365
-364
-363
-363
-364
-364
-364
-364
-364
-365
-364
-363
-363
-362
-362
-362
-363
-363
-364
-364
-365
-366
-366
-365
-365
-366
-366
-366
-366
-366
-366
-366
-366
-366
-366
-366
-367
-367
-367
-368
-368
-368
-369
-369
-369
-368
-368
-367
-367
-368
-369
-369
-368
-368
-368
-368
-367
-366
-365
-365
-365
-365
-365
-365
-365
-364
-363
-361
-360
-358
-357
-355
-354
-354
-354
-354
-354
-354
-355
-354
-353
-353
-353
-353
-353
-354
-355
-355
-354
-354
-354
-354
-354
-354
-354
-353
-354
-354
-354
-354
-353
-353
-353
-353
-353
-353
-354
-355
-356
-355
-356
-356
-355
-354
-354
-354
-354
-354
-353
-351
-351
-350
-350
-350
-350
-351
-352
-352
-352
-352
-352
-352
-351
-351
-351
-350
-349
-349
-349
-348
-349
-351
-348
-347
-357
-349
-335
-365
-348
-165
32
41
-13
3
-63
-281
-462
-494
-460
-434
-421
-415
-415
-415
-413
-410
-407
-405
-403
-400
-397
-394
-392
-389
-387
-384
-380
-376
-372
-368
-364
-361
-357
-352
-347
-342
-337
-332
-329
-324
-320
-317
-315
-313
-312
-313
-314
-316
-318
-320
-323
-325
-328
-332
-335
-339
-343
-347
-350
-353
-355
-358
-360
-362
-362
-364
-365
-364
-363
-363
-363
-363
-362
-363
-364
-364
-363
-363
-363
-363
-362
-362
-363
-364
-364
-364
-365
-366
-366
-366
-367
-367
-367
-367
-367
-365
-365
-365
-365
-365
-365
-365
-366
-367
-368
-369
-369
-369
-369
-369
-369
-368
-367
-367
-367
-367
-367
-368
-368
-368
-368
-367
-367
-368
-367
-366
-366
-365
-364
-363
-362
-361
-359
-358
-357
-356
-355
-355
-355
-355
-354
-354
-354
-354
-353
-353
-353
-353
-353
-353
-353
-352
-352
-353
-352
-352
-352
-353
-353
-352
-352
-353
-354
-355
-354
-353
-353
-352
-352
-351
-352
-352
-353
-354
-355
-353
-353
-353
-352
-351
-351
-351
-351
-351
-351
-351
-350
-350
-351
-352
-352
-351
-351
-350
-348
-347
-347
-348
-349
-349
-350
-350
-349
-349
-349
-348
-349
-348
-343
-348
-354
-337
-339
-373
-294
-69
64
21
-4
8
-128
-362
-486
-479
-445
-425
-414
-410
-409
-408
-405
-403
-400
-398
-396
-393
-391
-387
-383
-380
-378
-376
-372
-368
-364
-360
-356
-352
-349
-345
-340
-335
-330
-324
-319
-315
-312
-311
-310
-310
-311
-313
-314
-315
-317
-320
-323
-325
-328
-332
-335
-339
-343
-346
-349
-352
-355
-357
-360
-361
-362
-363
-364
-363
-362
-362
-362
-361
-361
-361
-362
-362
-361
-361
-362
-362
-362
-362
-362
-362
-362
-363
-363
-363
-364
-364
-365
-364
-364
-364
-364
-364
-364
-365
-365
-365
-365
-365
-365
-365
-366
-366
-366
-366
-366
-366
-365
-365
-365
-367
-368
-368
-369
-368
-367
-366
-365
-365
-364
-364
-363
-362
-362
-361
-360
-359
-359
-358
-358
-357
-356
-354
-353
-353
-352
-352
-352
-351
-350
-348
-347
-347
-347
-348
-348
-349
-349
-350
-351
-351
-350
-349
-349
-350
-351
-351
-351
-351
-351
-351
-351
-351
-352
-352
-351
-351
-351
-351
-351
-352
-351
-351
-351
-350
-349
-349
-348
-348
-348
-348
-348
-348
-348
-349
-349
-348
-347
-348
-347
-347
-347
-347
-348
-348
-349
-348
-348
-348
-348
-348
-346
-347
-350
-348
-344
-353
-351
-334
-356
-364
-214
4
54
-4
4
-28
-225
-431
-491
-463
-434
-419
-412
-411
-411
-409
-406
-404
-402
-398
-395
-393
-390
-386
-382
-379
-376
-372
-369
-366
-362
-359
-355
-350
-345
-339
-333
-328
-323
-319
-317
-313
-310
-308
-307
-308
-309
-310
-312
-314
-316
-318
-321
-324
-328
-332
-335
-338
-342
-345
-348
-351
-354
-357
-360
-361
-362
-362
-362
-363
-363
-363
-363
-362
-361
-361
-360
-360
-361
-361
-360
-361
-361
-361
-361
-360
-360
-360
-361
-361
-361
-361
-360
-360
-360
-360
-360
-361
-361
-362
-363
-363
-363
-363
-363
-363
-364
-365
-366
-366
-366
-366
-366
-366
-366
-366
-366
-366
-365
-365
-364
-362
-361
-361
-361
-360
-360
-360
-360
-358
-357
-355
-355
-355
-354
-353
-352
-352
-350
-349
-349
-348
-348
-347
-346
-346
-346
-345
-345
-344
-344
-344
-344
-344
-345
-345
-346
-346
-346
-347
-347
-346
-345
-345
-343
-342
-341
-341
-342
-342
-342
-344
-345
-346
-346
-347
-347
-347
-346
-345
-344
-344
-344
-345
-345
-345
-345
-346
-345
-345
-344
-343
-342
-342
-342
-342
-344
-345
-345
-345
-344
-344
-342
-342
-342
-342
-342
-345
-347
-341
-343
-352
-339
-332
-367
-322
-113
58
39
-1
18
-83
-314
-468
-480
-445
-423
-409
-404
-404
-403
-401
-399
-396
-394
-392
-390
-389
-387
-383
-381
-378
-374
-369
-364
-359
-356
-353
-350
-346
-341
-336
-331
-325
-320
-316
-312
-308
-307
-306
-306
-306
-306
-307
-308
-309
-310
-312
-315
-320
-324
-329
-334
-339
-342
-345
-348
-352
-355
-356
-357
-358
-358
-358
-358
-358
-358
-358
-359
-359
-357
-357
-356
-355
-355
-356
-356
-357
-357
-356
-356
-357
-357
-358
-359
-360
-361
-360
-360
-360
-360
-360
-360
-361
-361
-361
-360
-359
-359
-360
-361
-361
-362
-361
-361
-361
-361
-361
-362
-362
-362
-361
-360
-359
-358
-357
-358
-358
-358
-359
-360
-360
-360
-359
-359
-357
-355
-353
-352
-351
-350
-350
-349
-349
-348
-347
-347
-348
-348
-347
-346
-345
-345
-345
-345
-345
-345
-343
-342
-341
-341
-341
-343
-345
-346
-347
-348
-348
-348
-348
-348
-348
-347
-347
-348
-348
-348
-348
-347
-347
-347
-346
-345
-345
-345
-344
-343
-343
-341
-340
-340
-340
-340
-341
-342
-343
-343
-343
-343
-343
-343
-343
-343
-342
-341
-341
-341
-342
-342
-342
-343
-342
-342
-344
-342
-337
-345
-347
-329
-342
-364
-248
-23
66
10
3
-7
-179
-400
-489
-469
-438
-419
-409
-408
-409
-406
-403
-401
-400
-398
-394
-391
-388
-384
-380
-377
-375
-372
-368
-363
-358
-354
-350
-345
-340
-335
-331
-327
-322
-318
-315
-311
-308
-306
-304
-303
-304
-306
-308
-310
-312
-314
-316
-318
-321
-324
-329
-334
-338
-342
-346
-350
-353
-355
-357
-358
-359
-360
-360
-360
-361
-361
-360
-360
-360
-360
-359
-359
-359
-359
-359
-358
-358
-358
-358
-359
-359
-359
-360
-361
-362
-362
-362
-362
-362
-362
-362
-362
-362
-361
-361
-361
-360
-361
-361
-362
-362
-363
-363
-363
-363
-363
-364
-364
-364
-364
-363
-363
-362
-362
-361
-361
-361
-361
-361
-360
-359
-359
-358
-356
-355
-354
-353
-351
-349
-349
-349
-348
-348
-349
-349
-348
-348
-347
-346
-346
-346
-346
-346
-346
-346
-345
-345
-345
-345
-344
-344
-346
-346
-346
-346
-346
-346
-344
-344
-345
-346
-346
-346
-347
-347
-347
-346
-345
-345
-345
-344
-345
-345
-344
-343
-344
-344
-344
-344
-344
-344
-344
-344
-344
-344
-344
-344
-344
-342
-342
-343
-343
-342
-342
-342
-343
-343
-343
-344
-346
-346
-347
-349
-345
-343
-351
-344
-331
-361
-345
-161
39
52
-2
14
-51
-271
-456
-489
-454
-426
-410
-402
-401
-401
-400
-398
-396
-395
-392
-388
-385
-382
-378
-375
-373
-370
-368
-364
-360
-357
-353
-348
-344
-341
-335
-330
-326
-321
-316
-313
-309
-306
-304
-303
-303
-303
-304
-305
-306
-308
-310
-313
-315
-319
-324
-328
-332
-337
-339
-342
-345
-347
-350
-352
-354
-354
-354
-354
-354
-354
-353
-353
-352
-351
-351
-352
-352
-352
-352
-350
-349
-349
-349
-349
-350
-351
-352
-353
-354
-353
-353
-354
-354
-353
-353
-353
-353
-353
-354
-355
-355
-356
-356
-355
-355
-356
-355
-356
-356
-355
-356
-356
-355
-355
-356
-357
-357
-357
-356
-356
-354
-353
-352
-351
-351
-351
-350
-349
-348
-348
-347
-346
-345
-345
-344
-343
-341
-340
-340
-339
-338
-337
-336
-336
-337
-337
-338
-338
-338
-337
-336
-335
-335
-336
-335
-335
-335
-335
-335
-335
-335
-336
-336
-336
-336
-336
-336
-335
-335
-335
-335
-334
-334
-336
-336
-335
-335
-335
-334
-333
-333
-334
-335
-335
-335
-335
-335
-333
-332
-331
-332
-333
-333
-333
-333
-334
-334
-333
-332
-332
-332
-331
-331
-332
-331
-330
-333
-332
-328
-333
-340
-325
-327
-360
-281
-56
80
39
14
24
-112
-346
-472
-466
-432
-411
-399
-395
-394
-393
-392
-390
-388
-387
-385
-383
-380
-377
-373
-370
-368
-365
-362
-358
-353
-348
-343
-339
-334
-329
-324
-319
-314
-309
-304
-299
-296
-295
-293
-292
-294
-295
-297
-299
-300
-302
-305
-308
-311
-315
-318
-322
-326
-330
-332
-335
-339
-341
-343
-344
-345
-345
-345
-344
-343
-342
-343
-343
-342
-342
-343
-343
-343
-344
-345
-345
-344
-344
-345
-345
-345
-344
-344
-344
-344
-344
-344
-343
-343
-343
-343
-343
-343
-343
-343
-342
-342
-342
-342
-342
-343
-344
-344
-344
-345
-345
-345
-345
-345
-346
-345
-344
-343
-344
-344
-343
-343
-343
-342
-340
-340
-340
-339
-339
-339
-338
-336
-335
-333
-331
-330
-330
-330
-331
-332
-332
-331
-330
-329
-329
-329
-329
-328
-328
-328
-328
-327
-327
-328
-327
-326
-326
-326
-326
-326
-325
-325
-325
-325
-325
-326
-327
-327
-328
-328
-329
-329
-328
-329
-329
-329
-330
-330
-329
-329
-330
-329
-328
-329
-329
-329
-329
-328
-328
-328
-329
-329
-329
-329
-329
-329
