10
10
9
9
10
10
10
9
9
10
11
11
11
12
13
13
14
15
16
17
18
20
22
23
24
24
24
25
25
26
27
27
28
29
29
29
28
27
27
27
26
25
24
23
21
20
20
18
17
16
15
14
13
13
11
10
8
8
8
8
7
6
6
6
7
7
7
7
6
6
7
7
7
7
7
8
8
7
8
7
8
8
9
10
10
10
10
10
10
9
9
9
8
8
8
8
8
7
6
6
6
5
4
4
4
4
4
5
5
5
5
6
5
6
6
5
4
4
5
6
5
5
5
4
6
7
3
5
10
-27
-109
-166
-163
-143
-121
-67
9
62
69
50
31
22
25
33
38
39
38
38
38
37
36
35
34
32
32
34
36
38
37
35
31
22
9
-6
-23
-38
-52
-64
-74
-84
-93
-100
-105
-107
-107
-102
-95
-86
-77
-71
-65
-59
-52
-46
-39
-31
-24
-17
-11
-4
2
6
9
11
12
12
13
12
12
12
12
11
11
12
12
12
12
13
13
13
13
12
11
11
12
12
12
13
13
13
14
14
13
13
14
14
14
14
15
16
17
18
19
20
21
21
22
23
24
25
26
26
27
28
28
29
29
30
30
30
30
30
30
28
28
27
26
24
22
21
19
18
17
16
15
14
13
12
11
10
9
8
8
8
8
8
7
7
7
7
7
7
8
8
7
8
9
8
8
8
9
10
10
10
10
10
10
10
10
9
9
8
9
9
9
8
8
7
6
5
6
6
7
6
5
4
4
4
4
3
3
2
2
3
4
4
3
2
3
3
3
2
2
2
3
3
3
3
2
2
4
3
-1
5
-2
-62
-144
-176
-160
-140
-107
-38
35
70
65
43
27
24
30
37
39
40
39
38
38
37
35
33
32
31
32
34
36
37
36
32
25
14
1
-14
-31
-46
-59
-70
-81
-90
-98
-105
-109
-109
-107
-101
-92
-83
-75
-68
-61
-55
-48
-40
-33
-26
-19
-12
-5
0
5
9
11
12
13
14
14
14
13
13
13
13
13
12
12
12
11
12
12
11
11
10
10
10
9
9
9
9
9
10
11
11
11
12
12
13
14
14
15
15
17
18
19
20
21
22
24
26
27
28
29
30
30
31
32
31
31
31
31
31
31
31
31
30
30
30
29
28
26
24
22
21
19
17
15
14
13
12
12
11
9
7
5
5
5
5
4
4
5
5
5
5
5
5
5
6
7
7
6
7
7
8
8
9
9
9
9
10
11
10
10
10
10
10
11
11
11
10
9
10
10
9
8
8
7
8
8
8
8
7
7
7
7
6
5
5
5
5
5
5
4
3
3
3
2
2
1
1
0
2
3
-1
-1
6
-20
-97
-163
-170
-148
-129
-83
-7
54
69
54
34
24
25
32
37
39
38
38
37
37
36
35
32
31
31
33
35
36
37
35
31
23
12
-2
-18
-34
-48
-61
-71
-81
-91
-99
-105
-108
-108
-105
-98
-89
-80
-72
-66
-60
-53
-46
-39
-32
-25
-17
-11
-5
0
5
9
12
13
14
15
14
14
14
13
13
12
13
13
13
13
13
12
12
11
11
11
11
11
11
11
11
11
11
12
12
12
12
13
14
14
15
15
15
16
17
17
17
18
19
20
21
23
23
24
24
25
26
27
27
28
28
28
29
29
30
29
29
29
29
27
26
25
23
22
21
20
19
17
16
14
13
13
12
11
9
9
8
7
6
6
5
6
7
7
7
8
8
7
8
8
8
8
8
8
8
8
7
6
7
7
7
7
7
7
7
6
6
5
5
5
4
4
4
4
4
3
3
3
4
4
5
5
4
4
5
5
4
4
3
4
4
4
4
4
4
3
2
3
3
2
2
2
2
4
3
-2
4
4
-46
-131
-175
-164
-144
-117
-55
22
65
65
44
26
21
26
33
36
36
35
35
35
34
33
31
29
28
29
31
32
33
32
30
24
14
1
-13
-29
-44
-58
-69
-81
-91
-99
-106
-110
-112
-110
-105
-96
-87
-78
-71
-64
-58
-52
-44
-37
-30
-23
-15
-8
-2
3
8
11
13
14
14
13
12
11
10
9
9
9
9
9
9
9
9
8
8
9
8
8
8
9
9
9
9
9
10
10
10
11
11
12
12
12
14
15
16
16
17
18
19
20
21
23
24
25
26
27
27
27
28
29
29
30
30
30
31
32
31
31
30
30
29
28
26
25
23
22
20
18
16
14
12
11
10
10
9
7
6
5
4
3
4
3
3
3
3
3
4
4
3
4
5
5
6
6
7
7
7
8
8
7
6
7
7
7
7
7
6
6
6
5
5
5
5
5
5
6
6
5
5
4
4
3
3
4
3
3
3
3
3
3
3
3
3
3
2
1
0
0
1
1
0
0
0
-1
-1
2
-1
-3
5
-11
-81
-158
-176
-157
-137
-98
-24
44
69
58
36
23
23
29
36
38
39
38
38
39
39
38
36
35
36
38
41
43
43
41
37
27
14
-2
-20
-37
-52
-65
-77
-88
-97
-105
-112
-116
-116
-112
-105
-96
-87
-79
-73
-66
-60
-53
-45
-37
-29
-22
-15
-9
-3
2
5
7
8
9
10
11
11
10
10
10
11
11
11
10
10
9
8
7
7
7
7
7
8
8
9
9
9
9
10
10
10
11
11
12
12
12
11
12
12
13
14
15
17
18
19
20
21
21
22
23
24
24
25
27
28
28
29
29
29
29
28
28
27
27
26
25
24
23
22
19
17
16
14
12
11
10
9
7
6
6
5
5
5
5
5
5
4
4
5
5
5
4
3
4
3
3
3
3
4
5
6
5
5
6
5
6
6
7
6
6
5
5
5
5
5
4
4
5
4
4
4
4
3
3
3
3
3
3
2
2
2
2
1
1
1
0
0
1
0
-1
0
0
0
0
0
0
0
-2
0
1
-3
-1
4
-33
-120
-180
-178
-156
-132
-75
7
62
71
53
32
23
27
35
39
41
42
43
43
43
42
41
39
40
41
43
46
47
45
41
33
20
3
-16
-34
-52
-67
-81
-93
-103
-111
-118
-121
-120
-116
-109
-99
-90
-81
-73
-68
-62
-56
-48
-41
-33
-26
-19
-12
-6
-1
4
7
9
10
10
10
10
10
10
9
9
9
10
9
8
8
8
8
7
7
7
7
7
7
8
8
8
8
9
10
10
10
10
10
11
12
12
13
13
14
17
18
19
20
21
22
23
24
26
27
27
28
29
29
29
29
30
30
31
31
32
32
32
31
29
28
26
23
21
20
19
18
16
14
13
12
11
10
9
8
7
7
8
8
8
8
8
8
8
8
9
8
8
8
9
9
9
9
10
9
10
10
10
9
8
8
8
8
8
7
7
6
6
5
4
3
2
1
1
1
1
0
1
1
0
0
-1
-1
-1
-1
-2
-2
-1
-1
-1
-1
-1
-2
-2
-2
-3
-2
-2
-1
-1
-2
-1
-1
-1
1
-1
-4
3
-4
-65
-147
-180
-164
-144
-111
-42
33
69
63
41
25
22
27
34
37
38
38
39
39
39
37
36
36
36
38
40
42
42
40
34
25
13
-3
-21
-39
-55
-69
-81
-91
-100
-108
-114
-116
-115
-111
-104
-95
-86
-78
-70
-64
-58
-50
-42
-35
-27
-20
-13
-6
-1
4
7
10
11
12
12
12
11
11
11
11
10
10
11
10
10
9
9
9
8
8
8
7
7
6
5
5
5
5
5
5
5
5
5
6
6
7
7
8
10
11
12
12
12
13
14
16
18
19
19
20
22
23
24
24
25
26
26
26
27
28
27
26
26
25
24
24
23
21
19
17
17
17
16
15
14
13
12
11
10
9
7
7
6
5
4
3
2
3
4
5
5
4
4
5
5
5
5
6
6
6
7
7
7
7
7
8
8
8
7
6
6
6
6
6
5
5
5
5
5
6
5
5
5
4
4
4
4
3
3
3
3
3
4
4
4
3
3
3
1
0
-1
-1
-1
-1
-1
0
0
-2
0
1
-2
-2
5
-21
-99
-167
-174
-153
-132
-85
-7
55
71
55
35
24
25
32
37
39
39
39
39
39
39
37
35
34
34
35
37
38
38
36
32
23
11
-4
-21
-37
-53
-66
-77
-87
-96
-104
-109
-112
-112
-108
-102
-93
-85
-78
-73
-66
-59
-52
-44
-37
-29
-21
-13
-7
-1
3
7
9
10
11
12
12
11
11
11
10
10
10
10
10
10
11
12
12
12
11
11
11
10
10
10
11
11
11
12
12
12
13
14
14
14
14
15
15
15
16
17
18
18
19
20
21
22
22
23
23
23
24
25
25
26
26
26
27
28
28
28
27
28
28
28
27
25
24
23
23
21
20
19
18
16
15
15
14
13
12
11
11
11
12
11
11
10
10
10
11
11
11
11
11
10
11
11
10
11
12
12
12
12
11
11
10
11
11
10
9
7
6
5
4
3
3
3
2
2
2
2
2
2
2
2
3
3
3
3
3
3
2
2
1
2
2
2
2
1
1
1
2
3
3
3
3
3
2
4
3
-1
4
4
-45
-128
-172
-161
-141
-114
-52
24
68
68
48
30
24
28
35
39
40
39
39
40
39
38
37
35
34
36
38
40
41
40
37
30
18
4
-11
-28
-45
-59
-71
-82
-92
-100
-106
-110
-111
-109
-103
-94
-85
-76
-69
-63
-57
-50
-43
-36
-29
-21
-14
-8
-3
2
6
9
11
11
12
13
12
12
12
13
14
14
14
14
14
14
13
13
13
13
13
13
13
13
13
13
14
14
14
15
15
15
15
15
15
14
14
13
14
15
15
16
17
18
19
20
22
23
24
25
26
28
29
30
30
30
30
30
31
31
31
31
31
30
30
28
27
25
24
23
22
20
19
17
15
15
14
12
12
11
10
9
10
10
10
10
10
11
11
11
11
11
10
10
10
11
12
11
12
12
13
13
11
10
9
8
8
8
7
7
7
8
7
7
7
6
6
5
6
6
5
4
4
3
4
4
3
3
2
2
2
2
2
1
1
1
0
0
1
0
-1
0
1
1
1
1
1
1
2
5
2
0
7
-7
-77
-155
-175
-155
-135
-96
-23
46
73
61
39
26
25
32
38
40
40
40
40
40
39
37
35
34
34
35
36
37
37
35
30
22
11
-3
-20
-36
-51
-64
-75
-85
-94
-102
-108
-111
-112
-109
-102
-93
-84
-77
-70
-64
-57
-50
-43
-36
-29
-22
-14
-7
-1
4
8
10
11
12
13
13
14
13
13
14
14
14
14
14
14
13
14
14
13
12
11
11
12
12
11
11
11
13
14
14
13
12
12
12
12
12
13
14
15
16
17
18
19
19
19
20
22
23
24
25
26
27
29
30
30
30
30
31
31
31
31
32
31
31
30
29
28
26
25
23
22
21
19
17
15
14
12
11
10
9
8
8
8
8
7
7
6
6
6
6
6
5
6
7
8
7
7
7
7
6
6
6
6
6
6
8
8
7
8
7
7
7
8
8
7
6
6
6
7
7
6
6
7
6
6
5
5
5
5
5
5
6
5
5
4
4
4
3
2
1
1
1
1
1
1
1
1
1
2
3
-2
0
5
-31
-113
-170
-167
-146
-123
-70
8
60
68
50
30
22
25
32
37
38
39
40
40
39
38
36
34
33
34
36
38
38
38
36
29
19
7
-8
-25
-40
-54
-67
-79
-88
-97
-104
-108
-110
-109
-104
-96
-87
-78
-71
-65
-59
-53
-46
-39
-32
-24
-16
-10
-4
1
4
6
9
11
12
13
13
14
14
13
14
14
14
14
15
15
14
15
15
15
14
15
16
16
16
15
14
13
13
14
13
13
13
14
15
16
16
16
17
18
18
18
19
19
19
20
21
23
24
25
25
27
28
29
29
30
30
30
30
30
31
31
31
31
30
29
28
27
25
24
22
21
20
18
16
15
14
13
12
11
11
10
10
9
10
9
9
8
8
8
8
8
7
8
9
10
10
10
11
11
11
11
11
12
11
11
11
11
10
9
9
8
8
8
8
8
7
7
8
8
9
8
7
7
7
6
6
7
7
6
5
5
5
5
5
4
4
4
3
3
3
3
3
3
2
2
3
2
2
4
2
-1
6
0
-60
-143
-175
-158
-139
-106
-37
37
71
65
43
27
23
28
34
38
38
37
36
36
34
32
30
29
29
31
33
36
37
37
33
26
16
4
-12
-28
-43
-56
-68
-78
-88
-97
-103
-107
-108
-106
-101
-93
-85
-76
-69
-63
-56
-49
-42
-35
-28
-20
-13
-6
-1
4
8
10
12
13
13
14
13
13
13
12
12
13
14
14
14
14
14
14
14
15
15
15
15
14
15
15
16
15
16
15
15
14
13
13
13
13
13
13
14
15
17
18
20
20
21
22
23
24
24
25
26
27
28
29
29
29
29
30
30
30
30
29
29
28
28
27
26
25
23
21
20
19
18
16
14
14
13
12
11
9
8
7
7
7
7
7
7
7
7
8
8
8
8
8
8
8
8
8
8
8
8
9
9
8
8
8
8
9
9
9
8
8
8
7
7
8
8
7
7
6
6
6
6
6
6
6
5
5
5
5
5
5
5
5
4
4
4
4
3
2
2
1
2
2
3
3
3
2
3
5
1
0
7
-18
-94
-162
-169
-149
-129
-83
-8
53
70
54
32
19
20
26
31
33
32
32
32
31
29
27
26
25
26
28
31
34
35
34
30
22
11
-4
-20
-35
-49
-61
-72
-82
-92
-100
-106
-109
-108
-104
-96
-87
-79
-71
-65
-58
-52
-45
-37
-30
-22
-14
-7
0
5
9
11
14
15
16
17
17
16
16
16
16
16
15
15
14
13
13
13
12
12
11
10
9
9
9
9
9
9
10
10
10
9
10
10
11
12
12
12
14
15
17
18
20
20
21
21
22
24
25
26
28
29
30
30
31
32
32
32
32
33
33
32
32
31
31
31
30
29
28
26
24
22
20
18
16
15
14
12
11
10
8
7
6
5
5
5
4
4
4
5
4
5
5
5
6
6
6
6
6
7
8
8
8
8
8
8
8
8
8
9
8
8
8
8
8
7
7
7
6
6
6
6
6
5
6
6
6
6
5
4
3
3
4
4
3
3
3
4
4
3
2
3
4
4
3
3
4
3
2
5
5
1
6
7
-41
-125
-171
-161
-141
-115
-54
23
68
69
49
30
24
29
36
40
40
40
39
39
38
36
35
33
33
34
35
37
38
37
35
30
20
7
-8
-25
-40
-54
-66
-77
-87
-97
-104
-109
-111
-110
-105
-97
-88
-79
-71
-64
-57
-49
-42
-34
-27
-19
-11
-4
0
5
9
12
13
15
16
16
15
15
15
15
15
15
15
14
14
14
14
14
13
13
13
13
13
13
13
13
13
13
14
15
15
14
14
14
14
15
15
15
16
16
17
19
19
20
20
21
22
23
23
24
26
27
28
28
28
29
30
30
30
30
30
30
30
29
28
27
26
24
23
22
21
19
17
16
15
15
15
14
13
12
11
10
10
10
10
10
9
10
10
10
10
9
8
7
7
8
8
8
8
8
8
9
9
9
8
9
11
11
12
12
12
11
11
10
10
10
10
9
9
8
7
7
7
7
7
7
7
7
6
5
4
4
4
4
3
3
3
3
3
3
3
3
3
3
3
3
3
2
2
4
2
0
8
-6
-76
-155
-175
-155
-135
-97
-23
47
74
63
41
27
27
33
39
42
44
44
44
45
44
43
41
40
40
42
45
46
46
44
39
30
17
1
-16
-34
-49
-63
-75
-86
-96
-105
-111
-114
-113
-109
-101
-92
-83
-76
-69
-62
-55
-48
-41
-33
-26
-19
-12
-6
-1
4
8
10
11
12
12
12
12
12
11
11
10
11
10
10
11
11
12
12
12
12
12
12
12
12
12
13
13
13
14
14
13
13
13
14
15
15
15
15
17
19
20
21
21
22
23
24
25
26
27
28
29
31
32
33
34
35
35
35
36
35
33
32
30
29
27
25
23
20
19
18
17
15
14
12
11
10
10
10
9
8
7
7
6
6
5
5
4
4
5
5
5
5
6
5
6
6
6
6
6
7
7
7
6
6
7
7
8
8
7
6
6
6
6
7
7
7
7
7
8
8
8
7
6
6
6
6
5
5
4
4
4
4
3
3
3
3
4
4
3
3
3
4
4
4
4
4
4
2
4
6
1
4
9
-29
-114
-175
-173
-151
-128
-72
10
67
76
57
36
28
31
39
44
46
46
47
48
48
48
47
46
46
48
50
51
52
50
45
36
23
6
-13
-31
-49
-64
-78
-89
-100
-108
-114
-118
-117
-113
-107
-99
-90
-82
-75
-69
-62
-55
-48
-39
-32
-25
-17
-11
-5
-1
4
7
8
10
10
10
9
9
9
10
10
10
10
11
11
10
10
10
9
10
10
10
10
10
11
11
11
11
12
12
11
11
12
12
13
14
15
16
17
17
19
20
21
22
23
25
27
29
30
31
32
33
35
36
36
35
34
34
33
32
31
32
31
30
29
28
27
25
23
22
20
19
18
16
15
14
13
12
11
9
8
8
8
9
9
9
9
9
10
10
9
9
9
9
10
10
11
10
10
10
11
11
11
11
11
10
9
9
10
10
10
11
11
10
10
11
11
11
12
13
12
12
11
10
9
8
7
6
5
5
5
5
5
4
5
5
4
4
4
3
2
2
2
3
3
3
3
2
2
4
3
-1
6
0
-59
-143
-176
-160
-140
-109
-41
33
69
64
43
27
23
29
35
39
40
40
40
41
40
39
38
37
37
38
41
42
42
41
36
28
17
2
-15
-33
-49
-63
-76
-87
-96
-104
-110
-114
-114
-111
-104
-95
-86
-77
-70
-63
-57
-50
-42
-34
-26
-18
-11
-5
0
6
10
11
12
13
14
14
14
14
13
14
14
14
13
13
13
12
12
12
12
12
12
12
12
12
12
12
12
12
12
12
12
12
12
12
13
13
12
13
13
14
15
16
17
18
19
20
22
23
25
26
27
28
29
29
30
31
32
33
32
32
33
33
33
33
33
32
30
28
26
25
24
22
21
19
18
17
16
15
14
12
11
11
10
10
9
8
8
7
8
7
7
7
6
6
7
6
6
6
7
7
8
8
8
7
7
7
7
6
6
6
6
6
5
6
5
5
4
4
4
4
4
3
4
3
3
4
4
3
2
3
3
3
3
3
3
3
4
4
3
3
3
3
4
4
4
4
5
4
5
6
1
1
7
-17
-94
-165
-175
-154
-134
-89
-12
52
70
55
33
22
23
30
36
38
38
38
39
40
39
37
35
34
34
36
37
38
38
36
31
23
12
-2
-18
-34
-49
-62
-74
-84
-93
-101
-106
-108
-108
-104
-97
-89
-80
-73
-66
-59
-53
-45
-38
-31
-23
-16
-9
-2
4
8
12
15
15
15
15
15
14
13
13
12
12
11
10
10
10
11
11
10
10
10
10
10
10
10
11
11
11
12
12
11
11
12
13
13
14
15
15
16
17
18
19
20
20
21
22
22
23
24
25
26
27
28
29
29
29
30
31
32
32
32
32
31
30
29
29
28
27
25
23
22
20
19
17
16
14
13
13
12
11
10
8
7
6
5
4
4
3
4
4
5
4
4
5
6
6
6
6
7
7
7
8
8
8
8
9
9
10
9
8
8
8
8
8
8
7
7
7
7
7
7
7
6
6
6
5
5
5
4
4
5
5
4
4
4
3
3
3
3
3
3
3
3
4
4
3
3
2
1
3
3
-1
3
5
-40
-123
-171
-162
-141
-116
-57
19
65
66
45
26
19
23
29
33
34
34
34
34
34
33
32
30
29
30
32
34
35
35
32
26
16
2
-13
-29
-45
-58
-70
-80
-89
-98
-106
-110
-111
-110
-104
-96
-87
-79
-72
-66
-60
-53
-45
-38
-30
-23
-16
-9
-3
3
6
9
11
12
12
12
13
12
11
11
11
11
11
10
10
9
10
10
9
9
9
8
7
8
8
8
7
7
8
8
8
8
8
9
10
10
12
12
13
15
16
17
18
19
20
21
21
23
23
24
25
26
27
28
29
30
31
32
33
33
34
33
33
32
32
30
29
27
26
23
21
20
18
16
14
13
11
9
7
6
5
5
4
3
3
3
2
3
3
4
4
3
4
4
5
6
6
6
6
7
7
7
7
7
6
6
6
7
7
6
6
6
6
6
5
4
4
3
3
3
3
3
3
3
3
3
3
4
4
4
4
4
3
3
3
3
4
4
3
3
2
1
0
0
0
1
1
0
0
3
1
-2
5
-8
-76
-154
-176
-156
-136
-99
-26
44
72
61
39
25
24
30
36
39
39
38
38
37
37
36
34
31
31
32
35
37
38
36
32
24
14
-1
-18
-34
-50
-63
-76
-85
-93
-100
-105
-109
-110
-107
-100
-92
-83
-76
-70
-64
-58
-51
-44
-37
-30
-23
-16
-10
-5
0
4
7
8
9
9
10
9
9
10
11
11
12
