-87
-92
-97
-99
-99
-100
-104
-109
-112
-113
-110
-105
-102
-103
-105
-105
-100
-95
-92
-92
-94
-94
-89
-85
-86
-90
-93
-93
-90
-86
-86
-89
-90
-80
-61
-45
-43
-57
-79
-107
-142
-188
-237
-283
-319
-324
-286
-225
-174
-139
-107
-71
-32
-7
-11
-35
-61
-76
-81
-81
-80
-80
-82
-83
-80
-75
-75
-79
-83
-84
-81
-78
-78
-82
-85
-86
-82
-78
-78
-81
-84
-85
-81
-76
-76
-80
-84
-84
-79
-76
-77
-79
-82
-82
-79
-76
-77
-80
-83
-84
-80
-75
-76
-80
-83
-84
-79
-74
-74
-77
-80
-80
-76
-72
-71
-74
-78
-78
-73
-67
-69
-74
-78
-79
-76
-73
-75
-79
-83
-84
-83
-82
-83
-87
-91
-93
-90
-86
-87
-91
-94
-94
-90
-87
-88
-91
-94
-93
-88
-85
-86
-89
-91
-91
-88
-85
-86
-89
-93
-92
-88
-86
-87
-91
-94
-94
-89
-86
-88
-91
-93
-93
-90
-87
-88
-92
-94
-92
-87
-85
-87
-90
-93
-95
-92
-90
-91
-96
-100
-100
-97
-93
-93
-96
-97
-97
-95
-94
-96
-102
-109
-111
-107
-105
-109
-113
-112
-108
-103
-100
-99
-101
-101
-97
-92
-89
-90
-92
-94
-93
-89
-87
-88
-92
-94
-94
-89
-83
-74
-61
-52
-51
-58
-74
-102
-145
-196
-246
-289
-320
-322
-288
-235
-184
-139
-100
-64
-32
-16
-24
-43
-62
-77
-88
-92
-88
-81
-77
-79
-84
-87
-86
-83
-81
-81
-84
-87
-87
-83
-80
-81
-85
-87
-87
-82
-79
-80
-84
-86
-84
-80
-77
-80
-84
-86
-84
-78
-76
-79
-83
-86
-84
-80
-77
-79
-83
-85
-83
-78
-76
-78
-80
-82
-80
-75
-73
-75
-79
-81
-79
-74
-71
-73
-76
-77
-76
-74
-72
-74
-77
-80
-80
-76
-76
-81
-86
-88
-87
-85
-85
-87
-91
-94
-93
-89
-89
-92
-96
-99
-97
-93
-91
-94
-96
-97
-94
-90
-88
-90
-94
-96
-94
-91
-89
-92
-95
-97
-95
-90
-89
-92
-95
-97
-96
-92
-90
-92
-96
-97
-96
-93
-91
-92
-95
-98
-97
-94
-93
-95
-100
-102
-100
-97
-97
-101
-104
-105
-103
-98
-94
-96
-102
-105
-104
-105
-108
-111
-114
-117
-118
-114
-111
-111
-112
-112
-107
-101
-96
-96
-99
-100
-97
-92
-91
-93
-96
-97
-96
-92
-90
-91
-94
-93
-79
-58
-44
-46
-61
-81
-106
-143
-195
-251
-303
-339
-339
-299
-242
-194
-156
-118
-76
-37
-22
-36
-61
-81
-90
-91
-89
-87
-87
-88
-86
-82
-81
-84
-89
-91
-89
-85
-85
-88
-91
-92
-89
-85
-84
-87
-90
-91
-89
-85
-84
-85
-88
-89
-86
-83
-82
-86
-89
-90
-86
-81
-82
-86
-89
-91
-89
-84
-83
-85
-88
-90
-88
-84
-82
-84
-86
-87
-83
-78
-77
-80
-83
-83
-79
-74
-73
-76
-79
-80
-78
-74
-75
-79
-83
-86
-86
-83
-84
-89
-94
-96
-94
-91
-90
-95
-100
-102
-99
-96
-96
-99
-103
-105
-102
-98
-98
-101
-105
-106
-103
-99
-99
-103
-106
-107
-104
-100
-100
-104
-108
-110
-107
-102
-101
-103
-109
-111
-108
-104
-104
-108
-111
-112
-109
-106
-106
-109
-112
-112
-110
-108
-110
-114
-119
-121
-118
-115
-116
-119
-120
-119
-115
-113
-116
-121
-129
-134
-134
-132
-132
-135
-139
-140
-135
-129
-128
-129
-131
-129
-124
-118
-116
-119
-123
-124
-119
-115
-115
-118
-122
-123
-119
-115
-112
-104
-87
-68
-60
-65
-81
-106
-148
-203
-255
-302
-351
-386
-383
-342
-285
-232
-187
-144
-104
-83
-85
-99
-113
-123
-126
-123
-116
-112
-112
-115
-119
-120
-116
-112
-114
-119
-121
-120
-117
-114
-115
-119
-122
-122
-118
-114
-115
-119
-123
-124
-120
-115
-115
-118
-121
-121
-117
-114
-115
-118
-121
-121
-118
-114
-116
-120
-123
-123
-118
-114
-114
-117
-119
-119
-115
-111
-111
-114
-114
-113
-110
-106
-105
-108
-110
-109
-105
-101
-102
-107
-110
-111
-108
-107
-109
-115
-119
-121
-118
-116
-118
-123
-128
-129
-126
-125
-129
-134
-137
-137
-134
-132
-133
-137
-141
-141
-137
-134
-135
-138
-141
-141
-138
-136
-138
-142
-144
-145
-142
-141
-142
-146
-149
-149
-146
-143
-145
-147
-150
-150
-146
-144
-146
-151
-154
-153
-149
-147
-149
-153
-157
-158
-157
-157
-159
-162
-165
-164
-160
-156
-156
-160
-164
-165
-163
-164
-170
-176
-179
-179
-174
-171
-172
-173
-173
-172
-167
-162
-161
-162
-162
-160
-155
-153
-155
-158
-160
-159
-157
-155
-156
-160
-161
-151
-128
-104
-95
-103
-121
-138
-165
-214
-275
-330
-383
-427
-437
-403
-348
-301
-262
-217
-164
-127
-123
-139
-154
-161
-160
-155
-154
-156
-159
-157
-153
-151
-153
-157
-159
-158
-155
-154
-155
-158
-161
-159
-155
-153
-154
-155
-158
-158
-155
-153
-154
-157
-160
-158
-154
-152
-153
-156
-159
-158
-152
-150
-153
-155
-156
-154
-150
-147
-149
-152
-153
-150
-144
-142
-144
-147
-147
-145
-139
-135
-136
-140
-143
-140
-135
-134
-137
-140
-141
-139
-135
-133
-136
-141
-144
-143
-140
-140
-144
-149
-151
-150
-146
-145
-148
-154
-158
-157
-153
-152
-156
-160
-162
-160
-156
-154
-157
-160
-162
-159
-155
-154
-158
-161
-162
-160
-156
-154
-156
-159
-161
-161
-157
-155
-157
-160
-163
-161
-157
-156
-158
-161
-162
-159
-155
-155
-158
-161
-162
-160
-158
-158
-161
-166
-169
-168
-164
-162
-163
-165
-165
-162
-160
-159
-163
-170
-176
-176
-171
-170
-172
-176
-177
-171
-162
-159
-162
-165
-163
-157
-151
-148
-149
-152
-154
-152
-147
-145
-147
-150
-152
-150
-143
-132
-116
-101
-96
-103
-116
-138
-178
-235
-291
-334
-367
-387
-374
-331
-283
-240
-200
-159
-120
-98
-100
-115
-127
-137
-142
-141
-138
-135
-131
-128
-130
-134
-136
-132
-127
-126
-129
-132
-133
-128
-124
-123
-126
-129
-130
-127
-122
-122
-125
-128
-127
-123
-119
-118
-121
-124
-125
-122
-117
-116
-118
-121
-121
-119
-116
-117
-119
-121
-121
-117
-113
-112
-114
-116
-116
-113
-107
-105
-107
-110
-110
-105
-100
-99
-102
-106
-107
-103
-99
-98
-102
-106
-109
-107
-105
-106
-111
-114
-116
-113
-110
-110
-115
-119
-119
-115
-113
-116
-119
-122
-122
-120
-116
-116
-119
-122
-123
-120
-117
-117
-119
-122
-122
-119
-115
-116
-120
-123
-123
-120
-117
-117
-120
-123
-124
-122
-119
-119
-121
-123
-124
-121
-118
-118
-120
-123
-124
-121
-118
-118
-122
-127
-129
-126
-123
-123
-126
-127
-126
-122
-118
-119
-124
-129
-132
-133
-131
-131
-134
-139
-140
-134
-127
-124
-126
-128
-126
-120
-115
-114
-117
-118
-117
-113
-110
-110
-114
-118
-118
-114
-110
-108
-103
-90
-76
-70
-78
-97
-126
-166
-214
-259
-294
-324
-334
-308
-253
-198
-159
-129
-95
-61
-41
-41
-56
-78
-97
-109
-111
-104
-97
-98
-102
-105
-105
-101
-98
-99
-101
-104
-104
-101
-97
-97
-101
-105
-104
-99
-96
-98
-102
-105
-104
-98
-94
-96
-100
-102
-101
-98
-95
-96
-99
-102
-101
-97
-95
-96
-98
-101
-100
-95
-91
-92
-96
-98
-98
-93
-89
-90
-92
-93
-92
-88
-86
-87
-90
-94
-94
-88
-84
-87
-93
-97
-97
-94
-92
-95
-99
-103
-103
-100
-98
-100
-103
-106
-106
-103
-101
-102
-105
-107
-107
-102
-98
-100
-105
-107
-106
-101
-99
-100
-104
-108
-107
-103
-101
-104
-107
-108
-107
-104
-101
-102
-104
-106
-107
-103
-100
-102
-106
-108
-106
-102
-100
-103
-106
-109
-109
-106
-104
-106
-111
-115
-114
-109
-106
-107
-110
-111
-109
-105
-104
-108
-114
-120
-122
-120
-118
-121
-126
-129
-127
-120
-116
-117
-118
-119
-114
-105
-100
-102
-106
-108
-107
-104
-102
-102
-105
-107
-105
-101
-99
-96
-85
-71
-65
-69
-83
-108
-146
-192
-238
-276
-308
-325
-308
-259
-201
-154
-120
-89
-55
-29
-22
-33
-54
-75
-91
-101
-100
-93
-89
-91
-94
-96
-94
-91
-89
-92
-96
-98
-96
-92
-91
-93
-96
-98
-96
-91
-89
-93
-97
-99
-97
-91
-88
-91
-95
-97
-95
-91
-90
-92
-95
-96
-95
-92
-92
-94
-96
-97
-95
-91
-89
-90
-94
-96
-93
-89
-87
-88
-92
-93
-90
-86
-86
-89
-92
-93
-92
-88
-86
-89
-93
-96
-96
-93
-93
-97
-102
-105
-104
-101
-100
-102
-105
-107
-106
-103
-102
-103
-106
-107
-104
-100
-100
-102
-105
-106
-104
-99
-97
-99
-102
-104
-102
-98
-97
-100
-104
-105
-103
-100
-98
-101
-105
-107
-105
-101
-100
-102
-105
-106
-105
-101
-101
-104
-107
-108
-107
-104
-104
-107
-111
-112
-110
-106
-103
-104
-106
-108
-107
-105
-106
-112
-120
-123
-120
-117
-118
-121
-122
-121
-118
-113
-111
-113
-113
-110
-106
-101
-99
-101
-106
-108
-104
-99
-99
-102
-105
-106
-103
-96
-86
-73
-64
-65
-74
-89
-116
-160
-212
-261
-299
-325
-328
-294
-240
-189
-147
-109
-71
-37
-21
-30
-50
-67
-82
-95
-102
-101
-95
-90
-91
-94
-97
-98
-95
-91
-90
-93
-97
-98
-95
-92
-92
-96
-99
-100
-96
-91
-92
-95
-97
-97
-93
-89
-89
-93
-96
-96
-92
-90
-90
-92
-94
-95
-93
-90
-90
-92
-96
-97
-94
-90
-89
-92
-94
-93
-90
-87
-86
-88
-92
-93
-89
-85
-84
-87
-90
-91
-89
-87
-88
-91
-95
-97
-94
-92
-95
-99
-103
-104
-102
-99
-99
-103
-107
-108
-105
-101
-101
-106
-109
-109
-105
-102
-102
-105
-108
-108
-104
-100
-100
-103
-107
-108
-104
-100
-100
-103
-106
-108
-105
-101
-101
-105
-107
-107
-104
-100
-101
-103
-105
-105
-103
-101
-102
-105
-109
-112
-109
-106
-107
-111
-114
-113
-108
-104
-103
-106
-110
-111
-109
-109
-114
-119
-122
-125
-124
-121
-120
-121
-122
-120
-115
-110
-108
-107
-109
-108
-103
-99
-100
-103
-106
-107
-104
-100
-101
-104
-106
-104
-92
-74
-59
-57
-69
-86
-107
-139
-188
-241
-291
-328
-337
-308
-256
-206
-166
-129
-88
-48
-25
-31
-55
-76
-86
-91
-95
-97
-97
-95
-92
-89
-91
-94
-97
-97
-94
-92
-92
-94
-97
-97
-94
-92
-93
-96
-98
-97
-93
-89
-89
-93
-97
-96
-91
-89
-91
-94
-97
-96
-92
-89
-90
-93
-95
-95
-92
-89
-90
-93
-96
-94
-89
-87
-89
-93
-95
-93
-88
-86
-87
-89
-89
-87
-85
-84
-85
-89
-92
-92
-88
-86
-88
-91
-95
-96
-93
-91
-94
-100
-103
-103
-101
-99
-100
-103
-106
-106
-102
-100
-101
-104
-106
-105
-102
-100
-101
-104
-107
-106
-102
-99
-101
-104
-105
-104
-101
-100
-100
-103
-105
-105
-101
-99
-101
-104
-106
-104
-100
-97
-100
-105
-109
-107
-103
-102
-105
-109
-112
-111
-108
-106
-109
-112
-113
-110
-105
-102
-105
-111
-115
-118
-118
-118
-121
-125
-129
-127
-121
-117
-117
-119
-119
-115
-108
-103
-104
-107
-109
-107
-102
-100
-102
-106
-108
-106
-100
-98
-100
-101
-95
-77
-57
-51
-62
-82
-107
-143
-192
-245
-296
-338
-351
-322
-266
-212
-169
-132
-94
-56
-31
-34
-57
-81
-96
-102
-98
-92
-89
-93
-96
-94
-90
-88
-91
-95
-97
-96
-92
-90
-91
-95
-98
-96
-92
-92
-94
-96
-97
-95
-90
-88
-90
-94
-95
-93
-89
-88
-90
-93
-95
-93
-89
-88
-90
-93
-94
-91
-87
-86
-87
-90
-92
-90
-83
-81
-84
-88
-90
-87
-82
-80
-82
-84
-85
-82
-79
-79
-81
-83
-85
-84
-81
-80
-83
-88
-91
-91
-88
-88
-93
-98
-100
-99
-96
-95
-98
-103
-105
-103
-99
-98
-100
-101
-102
-102
-99
-99
-102
-106
-107
-104
-100
-100
-103
-106
-107
-105
-102
-101
-104
-107
-109
-106
-102
-101
-103
-107
-109
-107
-103
-103
-105
-108
-110
-108
-104
-105
-111
-117
-118
-115
-111
-111
-115
-118
-117
-112
-109
-110
-114
-121
-126
-126
-123
-123
-126
-131
-132
-127
-121
-119
-120
-121
-120
-116
-109
-107
-109
-112
-113
-110
-107
-108
-111
-114
-116
-113
-108
-106
-103
-90
-71
-57
-58
-73
-96
-133
-185
-239
-286
-334
-377
-387
-353
-296
-242
-196
-152
-109
-80
-76
-88
-104
-116
-122
-120
-111
-105
-105
-108
-111
-113
-110
-106
-106
-108
-113
-116
-114
-110
-109
-112
-116
-117
-114
-110
-110
-112
-115
-115
-112
-108
-108
-111
-115
-116
-113
-109
-108
-111
-114
-115
-112
-107
-108
-111
-113
-112
-110
-106
-105
-107
-110
-111
-107
-103
-101
-102
-104
-105
-101
-96
-95
-98
-100
-100
-96
-93
-93
-96
-99
-102
-100
-97
-99
-103
-107
-109
-108
-107
-109
-113
-117
-119
-116
-114
-117
-123
-127
-128
-126
-124
-125
-129
-133
-133
-130
-126
-126
-130
-134
-134
-131
-128
-129
-132
-136
-137
-134
-130
-131
-135
-139
-139
-135
-132
-134
-138
-139
-138
-135
-133
-133
-137
-142
-144
-141
-139
-142
-146
-150
-152
-149
-145
-147
-149
-150
-150
-150
-149
-152
-159
-165
-167
-165
-162
-162
-166
-168
-164
-159
-157
-157
-157
-157
-155
-149
-145
-144
-146
-150
-151
-148
-145
-146
-150
-152
-152
-148
-137
-118
-100
-92
-98
-109
-125
-158
-212
-275
-328
-375
-416
-428
-396
-341
-290
-246
-201
-154
-122
-119
-131
-140
-146
-150
-151
-150
-148
-145
-142
-143
-146
-149
-148
-144
-142
-143
-147
-150
-149
-144
-142
-144
-148
-151
-151
-147
-144
-145
-148
-151
-151
-146
-142
-144
-149
-152
-151
-147
-145
-145
-147
-149
-148
-144
-140
-141
-144
-146
-144
-139
-135
-136
-139
-141
-139
-133
-127
-128
-134
-137
-135
-129
-127
-128
-131
-133
-132
-127
-125
-127
-131
-134
-134
-130
-130
-133
-139
-142
-142
-140
-139
-142
-145
-148
-148
-145
-143
-146
-151
-154
-153
-151
-149
-151
-155
-159
-157
-152
-150
-152
-156
-158
-156
-153
-151
-153
-156
-158
-156
-153
-152
-152
-154
-156
-156
-152
-151
-153
-156
-159
-159
-155
-152
-154
-160
-165
-164
-160
-158
-161
-165
-167
-166
-161
-158
-158
-162
-166
-165
-164
-165
-169
-175
-178
-177
-172
-169
-172
-173
-172
-167
-162
-159
-158
-157
-157
-155
-150
-148
-149
-151
-153
-151
-148
-146
-147
-149
-148
-137
-115
-95
-90
-102
-120
-139
-170
-222
-280
-329
-371
-396
-385
-343
-295
-254
-217
-175
-128
-97
-98
-116
-132
-140
-140
-136
-133
-133
-135
-132
-127
-125
-128
-131
-133
-130
-125
-125
-128
-130
-131
-128
-125
-125
-128
-131
-132
-129
-123
-121
-124
-127
-127
-123
-119
-118
-121
-124
-125
-122
-116
-115
-118
-122
-123
-118
-113
-112
-114
-117
-118
-115
-109
-107
-108
-110
-110
-108
-103
-101
-103
-106
-106
-102
-97
-96
-98
-101
-103
-101
-98
-98
-102
-107
-110
-108
-105
-105
-110
-114
-116
-113
-109
-110
-115
-120
-122
-119
-115
-114
-116
-121
-125
-123
-117
-115
-118
-122
-123
-121
-118
-117
-119
-123
-125
-121
-117
-116
-120
-123
-124
-121
-116
-115
-119
-123
-124
-120
-116
-115
-118
-121
-123
-120
-116
-116
-120
-125
-127
-124
-120
-120
-123
-127
-128
-123
-117
-116
-119
-124
-126
-127
-127
-130
-133
-136
-138
-135
-129
-126
-127
-130
-129
-124
-117
-114
-115
-116
-115
-112
-108
-108
-111
-114
-116
-113
-109
-108
-109
-105
-92
-73
-63
-71
-91
-117
-151
-195
-241
-282
-317
-335
-314
-261
-207
-170
-142
-109
-72
-43
-36
-53
-76
-95
-106
-107
-100
-95
-97
-100
-102
-99
-96
-96
-98
-101
-102
-99
-95
-96
-99
-101
-100
-97
-94
-93
-96
-99
-100
-95
-91
-92
-96
-98
-98
-93
-89
-90
-94
-98
-98
-94
-91
-92
-94
-95
-94
-91
-89
-90
-93
-95
-95
-90
-86
-86
-89
-91
-92
-87
-82
-82
-85
-88
-88
-85
-81
-81
-85
-89
-90
-87
-85
-87
-91
-96
-98
-94
-91
-93
-97
-100
-100
-98
-95
-96
-99
-102
-103
-99
-95
-96
-100
-102
-101
-98
-95
-95
-97
-101
-103
-100
-95
-95
-99
-103
-104
-100
-97
-98
-101
-103
-103
-100
-97
-98
-100
-103
-103
-100
-96
-97
-101
-105
-105
-101
-99
-101
-104
-107
-107
-104
-102
-101
-102
-103
-103
-100
-99
-103
-111
-119
-120
-115
-113
-116
-119
-119
-116
-111
-107
-106
-108
-108
-105
-99
-94
-94
-96
-98
-98
-94
-92
-93
-96
-99
-99
-93
-83
-72
-62
-59
-65
-77
-99
-135
-183
-232
-274
-303
-314
-294
-245
-192
-151
-115
-78
-42
-18
-16
-31
-50
-66
-80
-91
-93
-90
-85
-82
-84
-88
-90
-89
-86
-83
-84
-87
-90
-90
-87
-86
-86
-88
-90
-89
-87
-85
-85
-88
-91
-90
-85
-83
-85
-88
-90
-88
-84
-82
-84
-89
-91
-89
-84
-84
-86
-88
-90
-88
-84
-81
-82
-86
-89
-87
-83
-80
-82
-85
-87
-86
-81
-79
-80
-84
-85
-84
-81
-81
-83
-86
-89
-89
-87
-86
-89
-94
-98
-97
-93
-92
-94
-99
-101
-99
-95
-94
-96
-99
-102
-100
-95
-93
-95
-98
-101
-99
-94
-92
-94
-97
-100
-100
-95
-93
-95
-98
-99
-98
-96
-95
-97
-100
-103
-100
-95
-93
-95
-98
-101
-100
-97
-96
-99
-103
-105
-104
-100
-98
-100
-104
-106
-103
-96
-95
-99
-103
-106
-109
-109
-109
-111
-116
-120
-118
-112
-108
-108
-110
-111
-107
-101
-96
-96
-99
-100
-98
-93
-92
-94
-98
-99
-97
-93
-92
-93
-93
-84
-66
-52
-52
-68
-92
-123
-162
-207
-252
-292
-322
-320
-276
-215
-165
-131
-99
-64
-27
-7
-17
-45
-70
-84
-89
-86
-82
-82
-86
-88
-86
-83
-82
-85
-89
-91
-89
-86
-86
-88
-91
-92
-89
-84
-83
-86
-90
-92
-90
-85
-83
-85
-88
-89
-87
-84
-84
-86
-89
-90
-87
-84
-85
-88
-90
-91
-88
-84
-82
-84
-87
-88
-86
-81
-80
-83
-85
-86
-83
-79
-78
-80
-82
-83
-81
-78
-78
-81
-84
-86
-84
-81
-81
-85
-89
-93
-92
-89
-88
-91
-96
-99
-98
-94
-94
-97
-101
-103
-99
-95
-94
-97
-99
-99
-97
-94
-95
-97
-99
-100
-98
-95
-94
-97
-101
-101
-98
-94
-94
-97
-99
-99
-97
-95
-94
-96
-99
-101
-97
-93
-94
-98
-101
-102
-100
-98
-99
-104
-107
-107
-105
-101
-99
-101
-103
-103
-100
-97
-100
-107
-114
-116
-112
-110
-114
-117
-118
-117
-112
-106
-104
-105
-105
-103
-99
-95
-94
-95
-99
-100
-97
-94
-94
-97
-101
-101
-97
-89
-77
-64
-56
-59
-69
-87
-117
-163
-216
-265
-303
-326
-319
-279
-227
-178
-135
-94
-57
-30
-25
-41
-60
-74
-84
-91
-94
-92
-86
-82
-83
-87
-90
-91
-88
-84
-85
-89
-92
-93
-89
-86
-86
-88
-90
-91
-88
-85
-85
-88
-91
-91
-87
-84
-86
-88
-91
-91
-88
-84
-84
-86
-88
-88
-86
-83
-83
-85
-89
-89
-86
-82
-82
-84
-86
-87
-83
-79
-78
-81
-85
-84
-80
-76
-76
-78
-80
-81
-78
-75
-77
-81
-84
-84
-82
-81
-84
-89
-93
-93
-90
-88
-90
-93
-97
-98
-97
-94
-95
-97
-99
-98
-95
-93
-95
-98
-101
-100
-96
-92
-92
-96
-100
-99
-94
-91
-93
-95
-97
-97
-94
-91
-92
-96
-99
-99
-94
-91
-91
-94
-96
-97
-94
-92
-94
-98
-102
-102
-98
-94
-95
-101
-104
-102
-96
-93
-95
-100
-102
-104
-105
-107
-110
-114
-118
-118
-112
-107
-108
-110
-111
-108
-102
-96
-94
-96
-98
-96
-91
-89
-91
-96
-98
-97
-92
-89
-91
-93
-91
-80
-60
-45
-46
-62
-85
-112
-150
-199
-252
-300
-333
-330
-286
-230
-183
-146
-110
-71
-35
-22
-38
-64
-81
-88
-89
-86
-84
-86
-88
-87
-83
-80
-82
-86
-90
-89
-84
-81
-83
-87
-89
-88
-84
-81
-83
-86
-87
-86
-81
-79
-81
-86
-88
-85
-81
-80
-82
-83
-84
-83
-80
-80
-81
-83
-85
-84
-80
-77
-79
-82
-84
-81
-76
-74
-76
-79
-80
-79
-75
-72
-73
-76
-77
-75
-71
-68
-70
-73
-76
-76
-71
-69
-72
-77
-82
-83
-80
-79
-82
-86
-89
-89
-86
-84
-86
-90
-93
-93
-90
-88
-90
-94
-95
-93
-89
-89
-91
-93
-95
-93
-89
-88
