3
3
3
3
3
3
3
3
3
3
3
3
3
3
3
3
4
3
4
6
3
2
9
-12
-85
-157
-169
-148
-129
-86
-12
53
73
59
39
27
27
33
39
41
41
40
39
38
37
35
33
31
32
33
35
37
39
37
33
24
12
-2
-18
-34
-49
-61
-72
-83
-92
-100
-106
-109
-109
-105
-98
-89
-80
-73
-66
-60
-54
-47
-40
-32
-25
-18
-10
-3
2
7
10
12
14
14
15
15
14
13
13
12
12
13
13
13
13
13
13
13
12
12
11
11
11
11
12
12
12
12
13
14
14
14
14
15
15
15
15
16
16
17
18
19
20
21
22
23
24
25
26
28
29
29
31
31
31
32
32
33
33
33
33
33
32
32
31
30
28
27
25
23
22
21
19
17
16
15
14
13
12
11
10
10
9
9
9
8
8
8
7
5
5
6
6
6
6
5
5
5
6
7
8
8
8
8
8
8
8
8
8
9
9
9
9
9
8
8
7
7
7
7
7
7
7
7
7
7
5
5
5
5
5
4
4
4
3
4
4
4
4
4
3
3
4
4
5
6
5
4
7
7
2
5
8
-36
-120
-172
-165
-144
-119
-62
16
65
69
49
29
22
25
32
36
36
36
37
37
36
35
34
32
31
32
34
36
39
39
37
32
24
11
-4
-19
-35
-50
-63
-73
-82
-91
-99
-104
-107
-107
-103
-95
-86
-78
-71
-65
-59
-52
-45
-37
-29
-22
-15
-8
-2
3
7
10
12
12
13
13
12
12
12
10
10
10
10
10
9
9
9
9
9
9
9
8
8
8
9
9
9
10
10
10
10
10
11
11
12
13
15
16
17
17
18
19
20
21
21
21
22
23
24
25
26
27
28
29
29
29
30
30
30
29
29
29
29
28
27
25
24
22
21
20
18
17
16
15
13
12
11
10
8
7
6
5
5
6
6
6
5
5
6
6
6
6
6
6
7
7
7
7
7
8
8
8
9
9
9
9
9
9
9
9
9
8
8
8
8
8
7
6
6
7
7
6
6
6
6
5
4
3
3
2
2
1
2
3
3
3
3
3
2
2
1
1
1
1
0
0
1
0
0
2
0
-3
4
-6
-71
-153
-180
-161
-140
-105
-33
40
72
64
42
27
25
31
38
41
43
43
43
43
43
43
41
40
42
44
46
47
48
46
41
31
18
2
-16
-34
-50
-64
-76
-87
-97
-106
-112
-114
-114
-111
-104
-95
-86
-79
-71
-65
-59
-53
-46
-39
-31
-24
-17
-11
-4
1
5
8
9
10
10
10
9
10
9
8
8
9
8
8
8
8
9
9
9
9
9
9
9
9
9
9
9
8
8
8
8
8
8
9
10
10
11
12
13
13
14
15
16
16
17
18
19
20
22
23
24
24
25
27
28
28
28
28
29
28
27
27
27
26
25
24
23
21
20
19
17
15
14
13
11
10
9
8
7
6
6
6
6
5
4
5
4
4
5
6
6
6
6
7
7
7
7
6
6
6
6
6
6
6
7
7
7
7
6
6
6
6
5
5
5
4
4
4
4
4
4
4
4
3
4
3
3
3
3
3
3
4
3
3
3
3
4
4
4
4
4
3
2
2
2
2
1
0
2
4
0
0
6
-24
-107
-175
-179
-156
-133
-82
-1
60
74
56
35
24
26
34
40
43
43
44
45
46
45
43
42
42
42
44
46
47
45
40
32
20
4
-15
-34
-52
-68
-81
-93
-104
-113
-119
-122
-121
-117
-110
-101
-92
-84
-77
-70
-64
-57
-49
-41
-34
-27
-19
-12
-6
0
4
8
9
11
11
11
11
11
11
11
11
11
11
11
11
11
12
12
11
11
11
11
11
12
12
12
13
13
13
14
14
14
13
14
15
15
15
15
16
16
17
18
19
20
22
23
25
26
28
29
30
30
31
31
32
32
32
32
32
31
30
29
28
27
26
24
22
22
20
18
16
15
14
13
11
10
10
10
9
8
7
7
6
6
6
6
6
6
6
6
6
7
7
8
8
8
8
8
9
9
9
9
9
9
9
9
9
10
9
8
8
8
8
8
7
7
6
5
5
5
5
5
5
4
4
4
3
4
4
4
3
3
3
3
3
2
2
3
3
2
2
2
3
3
3
3
4
2
2
5
3
-1
5
3
-50
-135
-176
-162
-142
-114
-49
28
69
67
46
29
24
29
36
40
41
40
41
42
42
41
39
38
37
38
39
40
40
39
34
27
15
0
-17
-34
-50
-65
-78
-88
-97
-106
-112
-116
-116
-113
-106
-97
-88
-79
-72
-65
-59
-52
-45
-38
-31
-23
-16
-9
-3
2
6
9
11
12
12
12
12
11
11
12
12
12
12
12
12
11
11
11
11
10
10
10
10
10
10
9
9
9
9
9
10
10
11
11
11
12
12
13
15
15
16
17
18
19
20
22
23
23
24
26
27
28
29
30
30
30
31
32
31
31
31
31
30
29
28
27
26
25
24
22
20
19
18
16
15
14
13
11
10
9
8
8
8
8
7
7
6
6
5
4
4
4
4
4
5
5
5
5
5
6
7
8
8
8
8
8
8
8
8
8
7
7
7
7
6
6
6
6
6
7
6
6
5
4
3
4
4
4
3
3
3
3
3
3
3
3
3
3
3
3
3
4
5
5
5
5
5
3
3
5
2
-1
5
-14
-88
-163
-178
-156
-137
-96
-20
46
68
55
34
21
21
28
34
36
35
35
36
36
35
34
33
32
32
33
36
37
37
36
32
23
12
-2
-18
-35
-50
-63
-74
-84
-94
-102
-108
-111
-110
-106
-99
-90
-81
-73
-66
-59
-52
-45
-38
-31
-24
-16
-9
-3
4
10
13
15
17
18
17
16
15
13
12
11
11
11
11
11
10
10
10
9
9
9
8
8
9
9
9
9
10
10
10
10
10
11
11
11
12
12
13
13
14
15
16
16
18
19
20
22
23
24
25
25
27
28
29
30
31
32
32
32
32
32
32
32
31
30
29
27
26
24
23
21
20
17
16
14
13
12
11
10
10
8
6
5
5
4
4
4
4
4
4
5
6
6
6
6
7
7
7
7
7
7
8
9
8
8
8
8
8
8
8
8
8
8
8
8
8
8
8
9
9
8
8
9
9
8
8
8
8
7
6
5
5
4
3
3
3
3
3
2
2
2
1
1
1
0
0
0
0
0
2
3
-1
2
5
-36
-118
-172
-166
-145
-122
-65
12
62
67
49
29
22
25
33
37
38
38
37
37
36
35
34
32
31
32
34
36
37
37
35
30
22
9
-5
-21
-37
-52
-65
-76
-86
-96
-103
-108
-110
-109
-104
-96
-88
-80
-73
-66
-60
-53
-46
-39
-32
-25
-17
-10
-3
1
5
8
10
11
12
12
12
12
12
12
12
12
12
12
12
11
12
12
11
11
11
11
11
11
11
11
12
12
12
12
12
12
12
12
12
14
15
15
16
18
20
20
21
22
22
22
23
23
22
22
23
23
24
25
26
26
27
27
27
27
27
26
26
27
27
26
24
23
22
20
20
19
18
16
15
14
13
12
11
10
9
8
8
7
7
6
6
6
6
7
8
8
8
8
9
9
9
10
10
10
11
12
12
11
11
11
11
11
10
10
9
9
8
7
7
6
6
5
5
6
6
6
5
5
4
4
3
4
3
3
4
4
4
3
3
3
3
3
4
4
4
4
4
3
3
4
4
3
3
6
4
1
8
-1
-64
-145
-173
-155
-135
-101
-30
42
73
64
42
27
25
31
37
40
40
38
37
36
36
34
32
30
31
32
34
36
36
34
30
23
13
-1
-16
-32
-47
-60
-71
-81
-90
-97
-103
-107
-108
-105
-98
-90
-80
-72
-66
-58
-51
-44
-37
-30
-22
-14
-6
0
5
10
14
17
18
19
18
17
16
15
15
15
15
15
15
15
15
15
14
14
13
12
11
11
12
12
12
12
12
12
13
13
13
13
13
13
14
14
15
16
17
17
18
19
20
21
22
23
24
25
26
27
29
31
32
34
35
35
35
35
35
35
35
35
35
35
35
33
31
29
27
25
24
22
20
19
17
15
14
13
12
11
10
10
9
9
9
8
8
8
9
10
10
10
10
10
10
10
10
11
12
12
12
13
13
13
13
13
13
13
12
12
12
12
12
12
11
11
10
10
11
10
9
9
9
9
9
9
9
9
8
8
8
8
7
7
6
6
6
6
6
5
4
3
3
2
2
2
2
1
3
4
0
1
8
-21
-100
-164
-166
-145
-124
-76
0
58
71
54
34
24
26
32
37
39
38
37
37
36
35
34
33
32
33
34
37
39
39
36
32
23
12
-2
-18
-34
-49
-62
-73
-83
-92
-100
-106
-109
-108
-103
-96
-87
-78
-70
-64
-58
-52
-45
-38
-30
-23
-16
-9
-2
4
8
12
15
16
17
17
17
17
17
16
16
15
15
15
15
14
14
14
14
14
14
14
13
13
13
14
14
14
15
14
14
13
13
13
14
15
15
15
16
17
18
19
20
21
22
23
24
25
26
26
27
27
28
28
28
29
29
29
29
30
30
30
30
30
30
29
28
26
25
23
21
20
20
19
17
16
15
13
11
10
9
8
8
8
8
7
7
7
7
8
8
8
8
8
8
8
8
8
8
9
9
9
9
10
10
10
11
11
11
11
11
11
11
11
10
8
7
6
6
6
6
6
5
5
5
5
4
4
4
3
4
4
4
4
5
4
4
4
4
4
4
4
4
4
4
4
5
4
4
6
5
1
6
4
-48
-132
-174
-161
-140
-111
-47
29
70
68
46
28
24
29
36
39
40
39
39
39
38
37
36
34
34
35
37
39
39
38
34
27
17
4
-12
-29
-44
-57
-70
-80
-90
-99
-106
-110
-111
-109
-103
-94
-85
-76
-69
-63
-57
-50
-42
-35
-27
-19
-12
-5
1
5
8
11
13
14
15
16
16
16
16
16
16
16
16
16
16
15
16
15
15
15
15
15
15
15
15
14
14
14
14
15
15
15
15
14
14
15
15
15
15
16
18
19
20
21
21
22
23
23
25
26
27
29
30
31
31
32
32
33
34
34
34
34
33
32
32
31
30
29
27
25
24
23
21
20
19
17
16
15
14
13
12
11
11
11
11
11
11
11
11
11
11
11
11
12
12
12
12
11
11
10
9
9
9
9
9
9
10
11
10
9
8
8
8
8
8
7
7
7
7
7
7
7
6
6
6
6
6
5
5
5
5
5
6
5
5
5
6
6
6
5
4
4
4
4
4
5
5
4
5
7
5
3
10
-8
-79
-154
-169
-148
-129
-90
-16
50
72
60
38
25
25
32
37
39
39
38
38
38
37
35
33
31
32
34
36
37
38
36
32
25
14
0
-17
-33
-48
-61
-72
-81
-91
-99
-104
-107
-108
-104
-97
-88
-79
-71
-64
-58
-52
-45
-37
-30
-23
-15
-8
-2
5
9
13
16
17
17
17
17
17
16
15
15
14
13
13
13
12
12
12
13
13
13
12
12
12
13
13
13
12
12
12
12
12
12
12
12
13
14
14
15
15
17
18
19
20
21
22
23
24
25
26
27
28
29
30
31
31
31
32
32
32
32
32
31
31
30
29
28
27
26
24
23
22
21
19
18
16
14
13
12
10
9
8
8
8
8
8
8
7
6
7
7
7
7
7
7
7
8
8
8
8
9
10
9
9
10
10
10
10
10
10
10
11
11
10
10
10
11
10
10
10
10
10
9
9
9
9
9
9
9
9
9
8
8
9
9
9
8
8
7
7
6
5
5
4
3
2
3
3
2
3
3
-1
2
5
-35
-118
-173
-168
-147
-123
-67
12
64
69
49
29
21
25
31
36
37
36
36
36
35
34
33
32
32
33
35
38
40
39
36
32
24
12
-3
-20
-35
-49
-62
-73
-83
-92
-99
-104
-107
-106
-101
-94
-85
-76
-68
-62
-57
-50
-43
-36
-29
-22
-15
-8
-2
3
8
12
15
16
17
17
16
16
15
14
14
15
14
14
14
13
13
13
14
14
14
14
15
15
14
15
15
14
15
15
15
15
15
15
15
15
16
17
18
19
20
22
23
23
23
24
24
25
26
27
27
28
29
29
30
31
31
31
31
31
31
31
31
29
29
28
27
25
24
23
21
19
18
17
15
14
13
12
11
10
10
9
8
8
8
8
8
8
8
8
8
9
9
9
9
10
10
10
10
10
10
10
11
11
11
11
12
12
12
12
11
11
11
11
11
10
9
8
7
5
4
4
4
3
3
4
4
4
4
4
3
3
3
2
2
2
3
3
3
2
2
2
2
2
2
2
2
1
1
3
2
-2
5
-4
-67
-150
-179
-161
-141
-107
-36
38
71
64
42
27
24
30
37
42
44
46
50
56
63
69
74
76
75
69
58
40
17
-8
-33
-56
-76
-92
-104
-113
-120
-124
-125
-118
-105
-86
-63
-40
-21
-6
3
7
8
8
8
9
9
10
10
10
10
10
9
9
10
9
9
9
9
9
9
8
8
8
8
8
8
8
8
8
8
7
6
7
7
7
7
7
7
6
7
7
7
7
6
6
6
6
5
6
6
6
5
5
6
7
7
8
8
8
7
8
9
9
10
11
12
12
13
12
12
12
12
11
11
12
12
11
11
11
11
10
10
9
8
8
8
8
8
8
8
8
9
9
9
9
9
10
10
10
10
11
11
12
12
12
13
13
13
12
11
10
9
8
8
8
7
7
7
7
7
6
5
5
4
3
2
2
2
3
3
2
2
2
2
1
2
2
2
1
1
2
2
1
0
1
1
4
8
13
19
26
33
37
36
28
12
-12
-40
-71
-101
-129
-152
-171
-185
-194
-197
-193
-182
-162
-135
-102
-70
-41
-19
-4
5
7
8
8
9
9
10
11
12
12
12
12
11
11
11
11
12
12
12
13
14
14
14
15
16
16
16
16
16
17
17
18
19
20
20
20
20
20
21
21
22
23
24
25
25
25
26
27
27
27
28
29
30
31
32
33
34
34
34
34
34
33
32
32
31
30
29
28
27
26
25
24
23
22
21
20
19
18
16
15
15
14
13
13
13
13
12
11
10
11
11
11
11
11
11
11
11
11
10
10
10
9
9
9
8
8
9
9
7
7
7
7
7
7
6
6
6
6
6
6
6
6
6
5
4
3
3
3
2
2
2
2
2
2
2
1
1
1
2
2
1
0
0
0
0
0
0
0
0
0
0
0
0
0
0
0
0
0
0
0
0
-1
0
0
0
-1
-1
-1
0
0
0
0
0
0
0
0
0
-1
0
0
1
1
1
1
1
1
0
1
1
0
0
0
-1
-2
-1
-4
-5
4
-10
-80
-160
-181
-161
-141
-103
-29
41
68
57
35
22
22
28
34
36
37
37
37
38
38
36
35
36
37
39
43
48
53
54
52
45
31
10
-16
-42
-67
-88
-105
-116
-124
-130
-133
-134
-131
-123
-109
-93
-74
-55
-37
-22
-9
0
5
6
6
6
7
8
9
9
10
10
9
8
8
7
7
6
6
6
6
6
6
6
6
6
6
6
5
5
6
6
6
6
5
5
6
7
7
7
6
6
6
6
6
6
6
6
7
7
6
7
7
7
8
10
10
10
10
11
12
13
14
14
14
15
15
16
15
15
16
16
16
15
15
16
15
15
14
14
13
12
11
10
9
9
8
8
8
7
6
6
5
5
5
5
5
6
6
5
4
5
6
6
6
7
8
8
9
9
9
9
9
9
10
11
10
10
10
10
10
10
10
10
10
9
9
9
9
8
7
7
6
6
5
5
4
4
3
3
3
3
2
2
2
2
2
1
1
1
1
1
1
2
2
2
2
1
2
4
0
6
16
-14
-90
-141
-133
-109
-88
-44
16
46
26
-22
-74
-111
-132
-143
-154
-164
-169
-166
-155
-135
-107
-75
-44
-18
2
14
19
20
20
19
18
18
18
18
18
17
16
15
14
14
15
15
16
16
16
16
16
16
15
15
14
14
14
14
14
15
15
15
16
16
17
17
17
17
17
18
18
18
18
19
20
20
21
21
22
23
23
23
24
24
24
24
25
25
26
26
26
26
27
26
26
26
26
26
26
25
24
22
21
20
19
17
16
16
16
16
15
15
14
14
14
14
13
13
12
12
11
11
11
11
11
10
10
10
10
10
10
10
10
10
10
10
10
9
9
9
9
8
8
7
7
7
7
7
6
6
6
6
6
6
5
5
4
4
4
4
4
4
3
3
3
3
2
1
0
-1
-1
0
0
-1
0
1
2
5
9
16
23
31
37
37
32
20
-1
-28
-60
-91
-121
-146
-167
-181
-191
-197
-196
-188
-172
-147
-116
-83
-53
-28
-10
1
5
6
6
6
7
8
9
9
9
9
9
9
9
10
10
10
10
11
12
12
12
12
12
12
13
14
14
13
12
13
13
13
13
14
15
16
17
17
17
17
17
18
19
20
21
22
22
23
24
25
26
27
27
27
28
28
29
29
28
28
29
29
29
28
28
28
27
27
26
25
24
23
22
21
19
17
16
15
13
12
12
11
9
8
7
6
6
5
5
4
4
4
3
3
3
3
3
4
5
6
7
7
8
8
8
9
9
9
9
9
9
9
9
8
8
8
8
8
7
7
7
6
5
5
5
5
5
5
4
3
2
2
1
1
2
2
2
2
2
2
2
1
1
2
2
2
2
3
4
7
12
18
25
32
37
39
35
23
2
-25
-55
-86
-117
-143
-164
-179
-189
-193
-192
-185
-169
-146
-117
-85
-54
-28
-9
1
6
7
7
7
8
8
9
9
9
9
10
10
10
11
11
11
11
11
11
12
12
13
13
12
13
13
13
13
13
14
14
14
14
14
14
14
14
14
15
15
16
16
17
18
18
18
19
20
20
20
21
21
21
21
22
23
24
24
25
25
26
26
26
26
26
26
25
25
25
24
23
22
21
21
20
19
18
17
16
15
14
13
12
12
11
10
9
9
9
8
7
7
8
8
8
7
7
7
8
8
9
8
8
7
7
7
7
6
6
6
6
7
7
7
6
6
6
6
5
5
5
5
4
4
4
4
3
3
2
2
1
1
1
1
2
2
2
2
1
1
1
1
1
1
1
1
1
1
1
1
1
1
1
1
1
0
0
1
0
0
0
0
-1
-1
0
0
-1
0
-1
-2
-3
-2
-1
-1
-1
-1
-1
-2
-2
-2
-1
-1
-2
-2
-1
-2
-3
-3
-3
-3
-3
-3
-3
-2
0
-2
-4
4
-8
-74
-152
-174
-154
-132
-91
-13
64
99
94
73
55
43
31
12
-15
-45
-75
-102
-125
-142
-154
-164
-169
-167
-157
-137
-111
-81
-51
-26
-7
4
9
10
10
11
11
13
13
13
14
15
14
13
14
14
14
14
14
15
14
14
14
14
14
14
14
14
14
14
14
14
14
14
14
15
15
15
15
15
16
16
16
16
16
16
17
17
17
18
18
18
19
19
20
20
20
19
19
19
18
18
18
17
18
18
18
18
19
19
19
18
18
18
17
16
17
17
16
15
14
14
13
12
11
10
10
9
9
9
9
8
8
8
8
7
7
7
7
7
7
7
8
8
8
9
10
11
12
12
13
14
14
15
14
15
15
15
14
14
14
13
13
12
12
11
9
8
8
8
7
7
7
6
5
4
4
3
3
2
2
2
2
2
2
2
1
0
0
1
1
0
0
1
1
3
6
10
16
23
31
36
38
34
23
3
-24
-54
-86
-117
-144
-165
-180
-190
-195
-194
-186
-171
-148
-117
-84
-54
-28
-9
3
8
9
9
9
9
10
10
10
10
9
9
10
10
10
10
9
9
10
11
11
11
11
11
12
12
12
12
12
13
14
14
15
15
15
16
16
16
16
17
17
17
18
19
20
20
20
20
21
22
23
24
24
25
25
25
25
25
24
24
25
25
25
26
26
27
26
26
25
25
24
23
22
21
19
18
16
15
15
15
14
13
13
12
11
11
11
10
10
10
10
10
10
10
9
9
9
9
9
9
9
8
8
8
8
8
8
7
7
7
6
6
6
6
6
5
5
4
4
4
4
4
3
2
1
0
0
0
0
-1
-1
-1
-1
-1
-1
-1
-1
-1
-1
-1
-1
-1
-1
0
0
2
4
8
14
21
29
37
41
40
33
18
-5
-35
-67
-99
-128
-153
-172
-185
-194
-198
-195
-186
-167
-141
-109
-77
-48
-23
-6
3
6
6
6
7
8
9
9
10
10
11
12
11
11
10
10
10
9
10
10
10
10
11
11
12
12
13
14
14
15
15
15
16
16
17
18
18
19
19
20
20
21
21
22
22
22
22
23
24
24
25
27
28
29
30
30
30
29
29
30
29
29
29
29
29
29
28
27
26
24
23
22
21
19
18
17
15
13
12
11
10
9
8
7
6
5
4
4
3
3
3
4
4
4
5
7
7
7
7
8
8
9
10
10
10
9
10
10
11
11
11
11
11
11
11
10
10
10
10
10
9
9
9
9
8
8
7
7
7
6
5
5
5
4
4
3
3
3
2
2
2
2
2
2
1
2
3
4
7
13
20
27
34
40
42
38
25
4
-26
-58
-90
-121
-147
-168
-184
-194
-199
-197
-190
-173
-149
-118
-85
-54
-28
-10
1
6
8
7
7
7
7
7
7
8
8
8
8
8
7
7
8
8
8
8
8
9
9
9
9
9
10
10
10
11
12
12
12
12
12
13
13
13
14
15
16
17
18
19
20
21
22
22
22
22
23
24
25
26
27
28
29
29
30
30
31
31
32
32
31
30
29
28
27
26
25
24
23
21
20
19
17
16
15
14
13
11
10
9
8
8
7
6
7
7
7
6
7
7
7
8
8
8
8
9
9
10
9
10
10
10
10
9
9
9
8
7
7
6
5
5
5
6
6
6
5
4
4
3
2
2
1
1
0
0
0
0
0
-1
0
1
1
1
1
1
1
1
0
0
0
-1
0
0
-1
0
0
-1
-1
-1
-1
-1
-1
-2
-2
-1
-1
-1
-1
-1
-1
-1
-1
-1
-1
-2
-1
-1
-1
-1
-2
-3
-2
-2
-2
-2
-3
-3
-3
-2
-2
-2
-3
-3
-2
-2
-2
-2
-1
-2
-1
2
-1
-2
5
-15
-90
-164
-177
-156
-136
-94
-17
49
70
57
35
22
22
29
35
37
37
36
36
36
36
35
33
32
32
33
34
36
37
35
31
23
12
-2
-19
-36
-51
-64
-77
-87
-97
-105
-111
-115
-116
-114
-108
-99
-90
-82
-76
-69
-62
-55
-48
-39
-32
-24
-16
-9
-3
2
5
8
10
10
10
10
9
9
8
8
8
8
7
8
8
8
7
7
7
7
7
6
6
6
6
6
6
6
7
7
7
7
7
7
7
8
8
8
7
8
9
10
10
10
11
13
15
16
18
20
21
21
22
24
25
25
26
27
28
28
29
29
29
29
29
29
29
29
28
26
25
25
24
23
21
20
19
18
17
16
15
14
14
13
12
11
11
11
11
11
11
10
10
10
9
8
8
8
7
6
6
6
6
5
4
4
4
4
4
4
4
4
4
4
4
4
4
4
4
4
4
3
3
3
2
2
2
1
0
0
1
1
1
1
1
1
2
2
1
2
1
1
1
2
2
2
1
0
3
4
-1
2
4
-41
-126
-178
-171
-151
-126
-66
13
63
67
47
27
20
24
31
36
38
39
39
40
40
40
39
38
39
40
42
44
44
43
39
29
16
-1
-19
-37
-53
-68
-80
-91
-101
-109
-116
-119
-119
-115
-108
-100
-92
-84
-77
-70
-63
-55
-47
-38
-30
-23
-17
-12
-7
-2
2
4
6
7
8
8
8
8
7
8
8
8
8
8
8
7
6
5
4
3
3
2
3
4
5
5
5
5
6
7
7
7
8
8
9
10
10
10
12
13
14
16
17
18
19
20
21
23
24
26
27
27
28
29
29
30
30
30
31
32
31
30
29
29
27
26
24
23
21
20
19
18
17
16
15
14
13
13
12
11
10
8
7
7
7
7
7
7
7
7
7
7
7
7
7
8
8
8
8
8
8
8
8
8
7
7
7
7
7
7
6
6
5
4
3
3
2
2
2
2
2
1
1
1
1
1
1
1
1
1
2
2
1
2
2
2
2
2
1
1
0
-1
-1
-1
-1
-1
0
-1
-1
1
-1
-5
3
-8
-75
-158
-185
-165
-145
-108
-36
38
69
61
39
23
22
29
34
37
39
40
40
41
41
41
39
38
38
40
41
43
42
40
34
25
12
-5
-23
-41
-57
-71
-84
-95
-104
-113
-118
-121
-119
-114
-107
-97
-88
-79
-73
-67
-61
-53
-46
-38
-29
-21
-15
-9
-2
2
6
8
9
10
11
10
10
10
10
10
10
11
11
11
10
10
10
10
10
9
9
9
10
10
10
10
10
9
10
10
10
11
12
12
12
13
14
14
14
14
14
16
18
19
19
20
21
23
24
25
26
27
29
30
30
31
32
32
33
34
33
33
32
31
30
30
29
28
27
25
24
23
22
20
18
17
16
15
14
13
12
11
11
11
10
10
10
9
9
8
8
8
8
8
7
7
8
8
7
7
7
7
7
6
5
4
3
2
2
2
2
2
3
3
3
3
2
2
2
3
3
3
2
1
1
1
1
1
1
2
1
1
1
1
0
0
0
0
-1
-1
-1
-1
-1
-1
-1
0
0
0
1
3
-1
1
8
-22
-103
-167
-169
-148
-127
-77
1
59
71
54
33
23
25
32
37
38
38
38
39
39
39
38
37
36
37
38
40
42
40
37
31
21
8
-8
-25
-42
-58
-71
-82
-93
-102
-109
-114
-116
-114
-108
-100
-91
-82
-75
-68
-62
-55
-48
-40
-33
-25
-18
-11
-6
-1
3
6
7
9
10
10
10
9
9
8
8
7
8
8
7
6
7
7
7
7
7
7
7
7
7
7
7
8
8
9
9
10
10
11
13
14
14
14
15
15
16
17
18
19
20
21
22
23
23
24
25
26
27
28
29
29
29
30
30
30
30
31
30
29
29
28
26
25
24
21
19
18
16
14
12
10
9
8
7
7
6
6
6
6
5
5
4
3
2
2
3
3
3
3
3
4
4
5
5
4
4
4
4
4
4
4
4
5
4
4
4
3
2
2
2
2
2
2
2
2
2
3
2
2
2
2
2
2
2
2
1
1
0
0
0
-1
-2
-2
-2
-2
-2
-3
-3
-2
-2
-2
-2
-3
-4
-2
-3
-6
0
-3
-56
-140
-179
-166
-146
-117
-52
25
66
63
42
24
20
25
30
34
34
33
34
34
34
32
31
30
29
30
32
34
35
34
30
23
13
0
-15
-32
-47
-61
-73
-84
-93
-102
-110
-114
-116
-114
-108
-100
-91
-83
-76
-69
-62
-55
-48
-41
-32
-25
-18
-12
-6
-1
3
6
7
8
9
9
9
9
8
8
8
8
8
8
8
8
8
8
8
7
7
6
7
7
7
7
7
8
8
8
9
9
10
9
10
10
11
11
13
13
14
15
16
17
17
18
19
20
21
22
22
23
24
24
25
26
26
27
26
26
27
27
26
24
23
23
22
21
19
18
18
16
15
13
11
10
9
8
7
6
5
5
5
4
3
3
3
3
3
3
4
4
3
3
3
4
4
4
3
4
5
5
5
5
4
4
4
4
4
4
4
3
2
1
1
0
0
-1
0
0
0
0
0
-1
-1
-1
-1
-1
-2
-2
-1
-2
-3
-3
-3
-3
-3
-3
-4
-3
-4
-4
-3
-2
-2
-3
-3
-4
-3
-1
-3
-4
3
-16
-90
-162
-174
-154
-135
-93
-18
47
67
53
32
20
20
27
32
34
34
33
33
34
33
32
30
29
28
29
31
32
32
29
24
15
4
-10
-26
-42
-57
-70
-81
-91
-101
-109
-114
-117
-116
-112
-105
-96
-88
-80
-73
-67
-60
-54
-46
-38
-29
-22
-15
-8
-3
2
5
7
8
9
10
9
9
8
8
9
9
9
9
9
8
8
8
8
8
8
7
7
7
7
7
7
6
6
6
6
6
7
7
7
8
10
10
10
10
11
12
13
14
15
16
17
18
20
22
22
23
24
25
26
26
28
28
28
28
28
28
27
26
26
25
24
22
20
18
18
17
15
14
14
13
11
10
10
10
8
7
6
6
6
5
5
4
4
4
4
4
4
3
3
3
2
2
2
2
2
2
2
2
2
2
2
2
2
2
1
1
1
1
1
1
1
0
0
0
1
1
1
0
0
0
-1
0
0
-1
0
0
-1
-1
-1
-1
-2
-2
-2
-2
-2
-1
-1
-1
-1
-1
-1
-1
-2
1
1
-4
-1
3
-39
-123
-175
-168
-148
-124
-67
11
59
64
45
25
18
22
28
32
32
33
32
32
32
32
30
28
28
30
32
33
35
34
31
26
17
4
-11
-28
-44
-59
-71
-82
-92
-100
-107
-112
-114
-111
-106
-99
-91
-82
-74
-68
-62
-55
-47
-40
-32
-24
-17
-11
-5
1
5
8
10
10
10
9
9
8
7
6
6
7
7
7
8
8
7
7
6
6
6
5
6
7
7
7
7
7
7
7
7
8
9
9
9
11
12
12
12
13
14
14
16
17
18
19
21
22
23
24
24
24
25
26
27
27
27
28
28
29
29
29
28
27
26
25
24
22
21
19
17
14
13
11
10
9
9
9
8
8
7
6
5
4
4
4
3
3
3
3
3
4
4
4
5
6
7
6
6
7
7
7
7
7
7
7
6
6
6
6
6
6
6
6
6
5
5
4
3
3
3
2
2
2
3
2
1
2
2
2
1
1
1
1
0
-1
-1
-1
-2
-2
-2
-2
-2
-2
-3
-3
-3
-5
-5
-3
-6
-8
0
-9
-72
-151
-177
-159
-140
-106
-36
34
65
57
36
21
18
24
30
32
32
32
31
31
30
29
27
26
26
27
28
29
30
29
25
18
8
-5
-20
-36
-52
-65
-76
-85
-95
-102
-108
-112
-113
-110
-105
-96
-87
-79
-73
-66
-59
-52
-44
-37
-29
-22
-15
-9
-4
1
5
8
10
11
11
11
11
11
11
10
11
11
11
11
11
11
10
10
9
9
9
9
9
9
8
8
8
8
9
8
9
9
8
8
9
10
11
12
13
14
15
16
17
18
19
19
19
20
20
20
21
21
21
22
23
23
23
23
24
24
23
23
22
22
21
20
20
19
18
15
14
14
12
10
9
8
7
6
6
6
5
5
5
4
4
4
4
4
4
4
4
4
4
4
4
5
5
4
5
6
6
7
7
7
7
7
8
8
8
7
7
6
5
4
3
2
2
1
1
1
1
1
0
0
0
-1
-1
-1
-1
-1
-1
-1
-1
-1
-2
-2
-2
-1
-1
-1
-2
-1
-1
-2
-2
-2
-2
-4
-3
-1
-5
-4
2
-28
-108
-173
-175
-153
-133
-83
-6
53
66
50
29
19
20
28
33
34
34
34
33
32
31
30
28
28
28
29
31
33
33
30
24
16
4
-11
-27
-43
-57
-70
-81
-91
-100
-108
-112
-115
-114
-110
-103
-94
-85
-78
-71
-66
-59
-52
-44
-36
-28
-22
-15
-8
-2
2
6
9
10
10
9
9
9
8
8
8
8
9
9
9
10
9
9
9
9
9
8
9
8
8
8
7
6
7
7
7
7
6
5
6
7
8
9
9
10
10
12
14
15
16
16
18
19
20
22
22
23
24
25
26
26
26
27
27
28
28
27
26
25
25
25
24
23
22
20
18
17
16
15
13
12
11
11
10
9
8
7
6
6
6
6
6
5
4
4
5
4
4
3
3
3
3
4
4
4
5
5
5
4
3
3
3
4
4
4
3
3
3
3
3
2
2
1
0
0
-1
0
0
1
1
2
2
2
2
2
1
1
1
1
0
-1
-1
0
0
0
0
-1
-1
-1
0
-1
-1
-2
-2
2
2
-2
4
1
-52
-136
-175
-162
-143
-115
-50
25
65
63
42
24
19
24
30
33
33
33
33
33
32
31
29
27
26
27
29
31
32
32
29
23
14
1
-15
-31
-46
-60
-72
-82
-92
-101
-108
-113
-114
-112
-106
-98
-90
-82
-74
-68
-61
-55
-47
-38
-31
-23
-16
-10
-5
0
4
6
8
9
10
9
9
8
7
7
6
6
6
6
5
5
5
5
5
4
4
4
4
3
4
4
3
3
4
4
5
6
7
7
8
8
9
10
10
11
12
14
14
15
15
16
18
19
20
21
22
23
24
25
26
26
26
27
28
28
28
28
27
26
25
24
23
21
19
18
16
14
12
11
10
8
7
7
7
6
5
4
3
3
2
2
2
3
3
4
4
5
6
6
7
8
7
7
7
7
8
8
7
7
7
7
8
8
7
6
6
5
5
5
4
5
4
4
4
3
3
3
3
3
3
3
3
3
3
2
2
2
1
0
-1
-1
-2
-2
-2
-2
-3
-2
-2
-2
-2
-1
-2
-3
-2
1
-3
-4
3
-16
-90
-164
-178
-157
-138
-95
-19
47
69
56
34
21
21
28
34
36
36
36
37
37
37
35
33
31
32
34
36
38
39
38
33
25
13
-2
-20
-36
-51
-64
-75
-85
-95
-104
-110
-113
-113
-110
-104
-96
-87
-80
-74
-68
-61
-54
-47
-39
-32
-24
-17
-11
-6
-1
3
5
7
8
8
9
9
8
8
8
8
8
8
8
7
7
7
7
6
6
6
7
6
6
6
7
7
8
8
8
9
9
9
10
11
12
14
15
15
16
17
18
19
19
20
21
22
23
24
24
24
25
25
26
26
26
26
27
26
26
25
25
24
23
21
20
19
18
17
16
15
13
12
11
10
9
8
7
5
5
4
4
3
3
3
2
2
2
3
3
3
3
3
3
3
3
3
3
2
3
3
4
4
3
3
3
3
3
2
2
2
2
1
0
1
1
1
1
1
2
2
1
-1
-2
-2
-1
-1
-2
-2
-2
-2
-1
-1
-2
-2
-2
-2
-3
-3
-3
-3
-2
-1
-1
-2
-2
-3
-4
-2
-1
-6
-2
2
-39
-125
-180
-174
-152
-126
-66
19
76
90
78
65
61
63
61
50
27
-1
-30
-57
-83
-105
-124
-140
-154
-162
-165
-159
-145
-121
-93
-63
-36
-16
-3
4
7
6
6
6
6
7
7
8
9
9
8
8
8
8
8
8
8
8
8
9
8
8
7
7
7
8
9
8
8
9
9
10
10
10
9
9
9
10
11
11
11
12
13
14
15
16
16
16
17
17
17
17
17
17
18
19
20
20
19
19
20
20
20
20
20
19
19
19
19
18
17
16
16
15
15
14
13
13
12
12
11
10
9
9
9
8
7
7
8
8
8
8
9
8
8
8
7
8
8
7
7
7
8
9
9
9
9
9
9
8
8
8
8
7
6
6
6
5
4
4
4
4
4
3
3
2
2
1
0
0
-1
-1
-1
-1
0
0
0
0
0
1
1
0
-1
-1
-1
0
1
4
9
16
23
30
36
38
35
23
4
-22
-52
-82
-111
-137
-158
-174
-187
-194
-195
-189
-174
-151
-121
-89
-60
-35
-16
-5
1
2
2
2
3
3
4
4
4
4
4
5
5
6
6
7
7
8
7
7
8
8
9
11
12
12
12
12
13
13
13
14
14
14
15
17
17
17
18
19
19
20
21
21
21
22
23
24
25
25
26
27
28
30
30
30
30
30
30
30
30
29
28
28
27
26
24
23
22
21
19
18
17
15
14
12
11
10
10
9
8
7
7
6
6
5
5
4
4
4
4
3
3
3
4
5
6
6
6
6
6
6
6
6
7
7
7
7
7
6
5
5
6
6
6
5
5
5
5
6
6
5
3
2
2
2
2
2
1
1
0
0
0
-1
-1
-2
-1
-1
-2
-2
-2
-2
-2
-2
-3
-3
-2
-2
-2
-1
-1
-1
-1
-2
-2
-2
-2
-1
-1
-1
-2
-2
-2
-2
-1
-1
-2
-2
-2
-3
-3
-3
-2
-2
-2
-3
-3
-3
-3
-4
-4
-4
-5
-5
-5
-5
-5
-5
-5
-5
-5
-5
-6
-4
-3
-7
-6
1
-30
-111
-176
-179
-156
-134
-84
-6
53
67
50
30
20
21
28
33
34
35
35
35
37
40
44
49
53
58
61
62
57
45
26
3
-22
-46
-67
-83
-95
-102
-108
-112
-115
-115
-110
-99
-82
-62
-41
-22
-8
-1
3
4
4
3
3
4
4
4
4
4
4
3
3
4
4
4
5
5
5
6
6
6
5
5
5
4
5
5
4
3
2
2
2
2
2
1
1
1
1
1
0
-1
-1
0
1
1
1
0
0
-1
0
0
0
0
0
0
0
0
0
0
0
0
1
2
2
1
1
2
3
3
4
4
4
4
5
6
6
7
7
6
6
7
6
5
5
5
5
5
5
4
4
4
4
4
3
3
4
4
5
5
5
4
4
4
5
5
5
5
6
7
8
9
10
10
9
9
9
9
9
8
7
6
7
7
7
6
6
5
5
5
4
3
3
4
3
3
2
2
2
2
2
2
1
1
0
0
1
1
1
1
2
1
0
0
1
0
-1
-1
0
-1
-2
0
-1
-5
1
-2
-56
-140
-179
-165
-145
-116
-51
24
63
60
38
21
17
22
29
33
34
34
34
34
34
33
32
31
31
31
34
35
36
35
31
25
15
2
-13
-29
-45
-59
-70
-80
-89
-98
-105
-109
-110
-107
-101
-94
-85
-78
-71
-64
-57
-50
-43
-36
-29
-22
-16
-10
-5
-1
3
6
7
7
7
7
7
7
7
8
7
8
8
8
7
7
7
6
6
5
6
6
6
5
5
6
7
7
6
6
6
8
9
9
9
9
10
11
12
12
14
15
16
17
18
18
19
20
21
21
21
21
21
22
22
23
24
24
24
24
23
23
23
23
22
21
20
18
16
16
14
12
11
10
10
9
8
7
6
6
5
5
5
4
3
3
3
3
3
3
3
4
4
4
5
5
5
5
4
4
4
3
3
3
3
3
3
2
1
2
2
3
2
2
1
1
0
0
0
-1
-2
-2
-2
-2
-2
-3
-3
-2
-2
-3
-3
-2
-2
-3
-2
-2
-3
-3
-3
-3
-3
-3
-3
-3
-3
-2
-2
-3
-2
1
-3
-4
3
-15
-88
-162
-177
-156
-136
-94
-19
46
68
56
34
21
20
26
32
35
34
34
33
33
33
31
29
28
29
30
32
34
34
33
28
20
10
-5
-21
-37
-53
-67
-79
-88
-97
-105
-111
-114
-114
-111
-105
-97
-88
-80
-73
-66
-60
-52
-44
-37
-29
-21
-15
-10
-4
0
4
6
8
9
9
9
9
9
9
9
8
8
8
8
8
8
8
7
7
7
7
7
8
8
7
7
7
7
7
7
7
8
8
8
7
8
8
9
10
10
11
12
14
15
16
18
19
20
20
21
22
23
23
24
25
26
26
26
26
26
26
26
27
27
26
25
23
22
20
18
17
15
14
13
12
11
10
9
8
6
5
5
4
4
5
5
5
5
4
3
3
4
5
5
5
4
4
3
3
2
2
2
2
3
3
3
3
3
2
2
2
2
1
1
1
2
2
2
2
1
1
2
1
0
0
0
0
0
1
2
1
1
0
0
0
0
0
0
1
1
1
2
1
0
0
0
0
-1
0
1
-3
0
4
-37
-119
-172
-167
-146
-122
-65
12
61
66
47
29
22
25
30
33
34
33
31
31
30
29
27
25
24
24
24
26
27
27
24
19
11
0
-14
-29
-44
-57
-69
-79
-89
-97
-105
-110
-112
-111
-106
-98
-89
-81
-74
-67
-60
-53
-46
-39
-32
-25
-18
-11
-5
-1
4
7
10
11
12
12
12
11
11
10
9
8
8
8
8
8
8
9
9
8
9
8
7
6
5
5
5
5
4
4
4
4
5
5
5
5
7
8
8
9
10
10
10
11
13
14
15
17
18
19
21
22
22
23
23
23
24
24
23
24
24
23
24
24
23
21
21
19
18
16
15
13
12
11
10
9
7
6
5
4
4
4
3
2
2
2
2
2
2
2
2
2
2
2
2
2
2
2
3
4
4
3
3
2
2
2
2
3
3
3
2
2
2
2
2
3
3
4
3
2
2
2
2
2
2
1
0
0
0
-1
-1
0
0
-1
-1
0
-1
-2
-1
-1
-1
-1
-1
0
-1
0
0
-1
-1
1
-1
-4
3
-7
-71
-151
-178
-160
-141
-105
-35
35
65
57
35
20
19
24
29
31
31
30
29
28
27
26
25
22
21
21
23
25
27
27
25
20
12
2
-11
-26
-40
-52
-63
-72
-81
-89
-96
-101
-103
-100
-95
-88
-79
-72
-66
-61
-55
-49
-42
-36
-28
-20
-13
-7
-1
3
6
8
10
10
10
9
9
8
7
7
8
8
7
8
8
9
8
8
8
8
8
7
6
5
4
4
4
3
3
4
5
5
5
5
6
6
7
7
8
9
9
10
10
12
14
15
16
16
18
19
19
20
21
21
21
22
22
21
22
22
22
21
22
22
20
19
18
17
16
14
12
11
9
8
7
6
4
3
2
1
1
0
0
0
1
2
2
2
1
1
0
0
0
0
0
0
-1
-1
0
0
1
1
0
0
0
0
1
1
1
1
2
2
1
1
2
2
2
1
1
0
0
0
0
0
0
0
-1
-1
-2
-3
-3
-3
-3
-3
-2
-2
-2
-2
-3
-3
-3
-3
-3
-4
-4
-3
-4
-5
-4
-3
-6
-4
2
-27
-106
-169
-172
-150
-130
-81
-5
52
64
47
26
15
16
22
27
29
29
29
28
27
26
25
23
21
20
22
24
26
27
25
21
13
2
-11
-26
-41
-56
-68
-78
-87
-96
-104
-110
-113
-114
-110
-104
-94
-86
-78
-71
-65
-59
-52
-45
-38
-30
-22
-15
-8
-3
1
4
6
8
9
9
9
8
8
8
7
7
6
6
7
7
8
7
7
7
7
6
5
5
4
3
3
3
3
4
5
6
6
7
7
7
7
7
8
9
10
12
12
13
15
16
17
18
19
20
21
22
23
23
23
24
25
26
26
25
25
25
25
24
24
23
21
20
19
17
15
13
12
11
10
8
7
6
6
5
5
5
4
3
2
2
2
1
1
0
0
0
0
0
-1
-2
-2
-1
0
0
0
0
0
0
0
1
1
1
0
0
1
1
0
0
-1
-1
0
0
-1
-2
-2
-1
0
-1
-2
-2
-2
-2
-3
-4
-4
-4
-5
-4
-4
-4
-4
-4
-4
-4
-4
-4
-4
-4
-4
-3
-2
-3
-3
-1
-2
-6
0
-2
-56
-140
-180
-167
-148
-120
-56
20
61
59
39
22
17
22
29
32
33
32
31
31
30
29
28
26
25
24
25
27
28
28
25
19
9
-3
-18
-34
-50
-65
-76
-86
-95
-104
-111
-115
-116
-114
-108
-100
-90
-82
-76
-70
-64
-57
-50
-42
-35
-27
-20
-14
-9
-4
1
4
6
7
8
7
6
6
6
5
5
4
4
4
4
4
4
3
3
4
5
6
7
9
10
11
12
11
10
10
9
8
8
9
9
9
9
9
9
9
10
11
12
15
17
18
20
21
21
22
23
24
24
24
25
27
27
28
28
27
27
25
24
23
22
20
18
18
16
14
12
9
8
6
5
4
2
1
1
0
0
0
-1
-1
-1
-1
-1
-1
0
0
0
-1
-1
-1
-1
-1
-1
-1
0
0
1
2
2
2
3
3
3
2
2
2
2
2
1
1
0
-1
0
0
-1
-2
-2
-1
0
-1
-2
-2
-3
-2
-2
-3
-3
-3
-3
-4
-4
-4
-4
-4
-4
-4
-5
-5
-6
-6
-7
-6
-6
-6
-6
-4
-7
-7
1
-18
-90
-164
-180
-159
-140
-99
-25
41
64
52
30
17
16
23
28
31
32
32
32
32
31
29
27
25
25
27
30
33
34
33
29
21
11
-3
-20
-37
-53
-67
-78
-87
-97
-106
-113
-117
-117
-113
-107
-98
-90
-83
-77
-70
-64
-57
-51
-43
-36
-28
-22
-16
-12
-7
-3
0
2
2
3
3
3
3
3
2
1
1
2
2
2
2
3
2
1
0
0
0
-1
0
0
-1
0
0
0
1
2
2
2
2
3
4
4
5
6
6
7
7
8
10
11
12
13
14
15
16
17
17
17
18
19
20
20
20
20
21
20
21
21
20
19
17
16
15
14
12
10
8
7
6
5
4
3
3
2
0
-1
-1
-2
-3
-4
-3
-3
-3
-4
-4
-3
-3
-2
-1
-1
-1
-1
-1
0
-1
-1
-1
-1
-1
-1
-1
-1
-1
-1
-2
-3
-3
-3
-4
-5
-4
-4
-4
-4
-4
-5
-5
-4
-4
-5
-5
-4
-4
-5
-4
-4
-4
-4
-4
-4
-6
-7
-6
-5
-5
-5
-4
-4
-6
-7
-6
-7
-9
-7
-6
-10
-6
-2
-44
-130
-186
-180
-158
-133
-74
7
59
66
47
28
20
22
28
32
34
34
35
35
36
35
34
34
34
35
36
39
40
39
35
27
15
-1
-18
-35
-52
-68
-81
-92
-102
-111
-118
-122
-122
-119
-112
-103
-94
-86
-80
-74
-68
-61
-54
-46
-39
-31
-24
-17
-12
-8
-4
-1
1
2
2
3
2
1
1
1
1
0
0
1
1
2
2
2
1
2
2
1
0
0
0
0
1
2
1
1
1
2
2
3
3
4
5
6
7
8
9
10
11
12
13
14
15
16
17
18
20
22
23
23
22
22
22
22
21
21
21
21
21
20
19
17
16
14
13
12
11
10
9
8
7
6
5
4
3
2
2
1
1
0
0
0
1
1
0
0
1
1
2
2
3
3
3
3
3
4
5
5
5
5
5
5
4
4
4
3
3
2
2
2
2
2
2
2
1
0
1
1
0
0
0
-1
-2
-3
-4
-4
-4
-4
-4
-5
-4
-5
-5
-6
-5
-5
-5
-4
-4
-5
-5
-4
-4
-5
-5
-4
-6
-9
-3
-12
-77
-158
-184
-165
-145
-110
-38
35
67
58
37
22
19
25
32
35
36
36
36
36
36
35
34
33
34
35
37
39
39
36
30
20
7
-8
-26
-44
-61
-75
-87
-98
-108
-116
-122
-126
-125
-121
-114
-105
-95
-87
-80
-73
-66
-59
-51
-43
-35
-27
-19
-13
-8
-3
1
3
4
5
5
6
6
7
7
7
7
6
6
6
7
7
6
5
5
5
5
4
5
6
5
5
6
7
6
7
8
9
9
8
8
9
9
9
10
10
11
12
12
13
14
16
17
18
19
20
21
22
23
24
24
26
27
27
26
26
25
25
25
25
24
23
22
21
19
18
16
13
11
10
8
8
7
5
4
4
3
3
3
3
3
4
4
4
3
3
3
2
3
3
3
3
3
3
3
2
1
1
0
0
1
1
1
0
1
1
1
0
0
-1
0
-1
-2
-3
-4
-4
-4
-3
-3
-3
-3
-3
-3
-3
-3
-4
-4
-5
-4
-4
-3
-3
-3
-3
-4
-4
-4
-4
-4
-4
-4
-4
-5
-6
-4
-2
-6
-4
2
-28
-110
-175
-178
-156
-135
-85
-7
52
66
49
27
16
18
24
30
32
32
32
32
33
33
32
30
29
28
30
31
33
33
30
25
15
3
-12
-28
-45
-60
-74
-86
-96
-105
-113
-119
-121
-120
-114
-106
-97
-88
-80
-74
-67
-61
-54
-47
-40
-32
-25
-17
-10
-5
-1
2
4
6
6
6
5
5
4
4
5
5
5
6
6
6
5
4
4
4
5
5
5
5
5
5
6
6
6
6
6
7
8
8
8
9
9
10
11
12
12
13
13
14
14
15
15
16
17
19
20
22
23
23
23
23
23
23
23
23
23
23
23
22
21
20
18
17
16
15
13
11
9
7
6
5
4
3
3
3
3
1
1
1
1
0
1
2
2
2
1
1
1
1
2
2
2
3
3
3
3
3
3
3
3
4
4
4
3
2
2
1
0
0
-1
-1
-2
-3
-3
-4
-4
-4
-4
-4
-4
-4
-4
-4
-4
-4
-4
-5
-4
-4
-3
-3
-4
-4
-4
-4
-4
-5
-5
-5
-5
-4
-4
-5
-5
-3
-4
-8
-2
-3
-55
-138
-179
-166
-145
-117
-54
21
63
61
39
22
16
20
26
30
31
31
30
30
30
29
28
27
27
27
29
31
32
30
25
18
7
-7
-23
-39
-55
-69
-81
-92
-101
-109
-116
-121
-121
-118
-112
-103
-95
-87
-80
-74
-67
-60
-52
-44
-37
-29
-21
-15
-10
-6
-2
2
3
5
5
6
6
6
6
6
5
5
5
5
5
4
4
4
4
4
5
5
4
4
4
5
4
4
4
4
3
4
5
5
4
4
5
7
8
10
11
12
12
12
13
14
14
15
16
18
20
21
22
23
24
25
25
25
26
26
25
25
25
24
23
21
19
18
16
14
13
11
9
8
8
7
6
5
4
4
4
3
1
0
0
-1
-2
-2
-3
-3
-3
-3
