-93
-81
-68
-56
-44
-33
-22
-14
-8
-5
-7
-11
-15
-20
-24
-27
-28
-29
-30
-29
-27
-22
-15
-7
0
6
11
15
17
18
19
20
21
22
23
23
23
24
25
27
28
30
31
33
34
36
38
39
41
43
45
47
49
51
52
54
56
58
59
61
63
64
66
67
68
70
71
72
72
73
74
74
75
75
75
74
73
72
71
70
68
68
67
65
63
62
60
58
57
55
53
51
50
48
46
45
44
43
41
40
39
37
37
36
34
32
31
30
29
28
28
27
27
27
26
25
24
24
24
24
24
23
22
21
21
21
21
20
19
18
18
18
17
17
17
17
17
16
16
16
16
15
15
15
15
14
13
14
14
14
14
15
14
14
13
13
12
12
12
12
12
12
12
12
12
13
13
13
13
12
11
12
12
8
2
2
7
10
12
20
27
28
26
23
20
18
15
12
9
6
2
-4
-9
-15
-20
-27
-35
-41
-49
-57
-64
-69
-73
-79
-86
-95
-106
-118
-129
-137
-142
-141
-136
-127
-114
-101
-90
-78
-66
-53
-41
-30
-20
-12
-7
-6
-8
-13
-18
-23
-26
-28
-30
-29
-28
-25
-21
-15
-8
0
6
12
16
19
20
21
21
21
22
23
24
25
25
26
27
28
29
30
32
33
34
35
36
38
39
40
41
43
45
48
50
51
52
53
55
56
58
59
60
62
65
67
69
70
71
71
71
70
70
71
71
71
71
70
70
70
69
67
65
64
63
61
60
59
58
56
54
52
50
47
45
44
43
41
39
37
35
32
31
30
29
28
27
25
23
21
20
19
17
15
15
15
15
14
14
14
13
12
12
12
12
11
11
11
11
10
10
11
12
11
12
13
13
13
13
13
13
12
12
12
12
12
12
13
13
13
13
13
12
11
10
10
11
12
13
13
13
14
13
12
12
11
10
9
10
9
9
10
9
1
-5
-1
4
5
10
19
24
22
19
15
12
10
8
5
3
0
-4
-8
-12
-16
-22
-29
-35
-43
-51
-59
-66
-71
-75
-81
-88
-98
-110
-122
-133
-141
-143
-142
-136
-125
-112
-99
-88
-76
-62
-50
-39
-28
-19
-13
-9
-9
-13
-18
-23
-27
-30
-32
-33
-33
-32
-31
-27
-21
-13
-6
0
4
9
12
13
15
16
18
19
20
21
21
23
24
25
27
29
31
32
34
35
36
37
39
40
40
42
44
46
47
48
49
50
51
52
52
53
55
56
58
59
60
60
60
60
61
62
62
61
61
61
61
61
60
60
60
59
58
57
57
56
54
53
51
50
49
47
45
43
43
43
42
40
38
36
34
32
31
30
29
28
27
27
26
25
24
23
22
21
20
19
17
16
15
14
13
13
14
13
12
12
13
13
13
13
12
12
12
11
10
11
11
11
11
12
12
12
12
12
12
12
12
12
12
13
13
14
14
14
14
14
14
14
14
14
14
14
13
13
12
11
11
11
11
11
11
12
14
11
5
4
9
11
11
17
23
25
23
20
17
15
13
10
6
3
-1
-7
-12
-17
-23
-30
-36
-43
-50
-58
-63
-67
-70
-73
-78
-84
-93
-104
-114
-122
-126
-125
-120
-110
-97
-84
-72
-60
-47
-36
-25
-15
-6
2
8
10
7
2
-2
-7
-11
-14
-17
-19
-21
-21
-19
-16
-12
-5
1
6
10
13
15
16
17
18
19
20
21
22
22
23
24
24
25
26
27
28
30
32
35
36
38
40
41
42
44
45
45
47
48
49
52
54
56
57
58
59
61
63
63
64
64
65
66
67
67
68
68
68
68
67
67
66
65
64
64
62
61
59
57
55
54
53
51
49
47
46
45
43
42
40
38
36
34
32
30
28
27
25
24
24
24
23
22
21
20
19
18
16
15
15
14
13
12
11
10
10
10
10
11
11
11
12
12
13
13
13
13
14
15
15
15
15
14
12
11
11
11
12
12
13
14
15
15
15
14
13
12
11
11
10
9
9
9
9
8
9
9
10
10
11
12
12
12
12
13
9
6
8
12
14
16
21
25
24
20
17
15
13
11
8
4
0
-6
-12
-17
-23
-29
-34
-40
-47
-53
-59
-63
-66
-69
-72
-77
-84
-92
-101
-109
-113
-114
-111
-104
-94
-82
-70
-59
-47
-37
-27
-17
-8
0
5
8
6
1
-5
-10
-15
-20
-23
-25
-25
-24
-22
-18
-12
-5
2
7
11
14
16
17
18
19
21
22
23
24
25
26
27
28
30
31
32
33
35
36
37
38
40
42
43
45
47
49
51
53
55
57
59
62
64
65
66
68
68
69
68
68
68
69
69
69
70
69
68
66
65
65
65
64
64
63
63
61
60
58
57
56
55
54
54
52
51
49
47
45
43
43
41
39
37
36
35
33
32
30
28
25
24
23
22
20
20
19
19
18
17
16
16
16
15
15
15
14
14
14
13
13
13
12
12
12
12
12
13
15
16
16
17
16
15
14
13
12
11
10
11
11
12
12
11
12
11
11
11
12
12
13
13
14
13
13
14
14
14
13
13
13
14
14
13
13
14
12
6
4
7
10
11
15
21
24
22
18
15
13
11
7
3
0
-5
-10
-16
-21
-27
-34
-41
-48
-55
-64
-70
-74
-77
-81
-87
-94
-104
-115
-126
-135
-140
-140
-136
-127
-116
-104
-91
-78
-65
-52
-39
-27
-17
-9
-4
-2
-5
-9
-14
-19
-23
-27
-29
-30
-30
-28
-25
-20
-13
-6
0
6
10
13
15
16
17
17
18
19
21
22
23
24
26
27
29
30
32
34
35
37
39
41
43
45
46
48
49
50
51
52
53
55
57
59
62
63
65
66
68
69
70
70
71
71
72
72
72
72
72
71
70
70
68
67
65
63
62
61
60
58
55
53
52
51
49
48
45
43
42
41
39
37
36
35
34
33
32
31
29
27
25
24
22
22
21
20
20
20
19
18
17
16
15
15
15
15
14
14
14
15
15
15
15
15
15
14
14
14
13
13
13
13
14
14
14
15
15
14
13
12
12
11
10
10
10
9
9
9
9
9
9
10
11
11
11
11
11
11
10
9
8
7
8
8
8
9
10
7
2
2
6
7
10
17
23
24
22
19
17
15
13
9
6
3
-3
-9
-14
-20
-27
-34
-41
-48
-56
-63
-70
-75
-80
-84
-90
-98
-108
-120
-132
-141
-146
-146
-142
-133
-121
-108
-96
-84
-70
-57
-44
-31
-19
-10
-5
-5
-9
-14
-20
-25
-28
-30
-30
-29
-28
-26
-22
-17
-10
-4
2
7
12
14
16
18
19
20
21
22
23
25
25
26
26
27
29
30
31
32
33
34
36
37
39
40
42
44
46
47
49
51
53
56
58
59
61
62
63
64
65
67
68
69
70
71
72
72
72
72
72
72
72
72
71
70
70
68
67
66
65
64
62
61
60
58
55
53
52
50
48
47
45
44
41
39
37
36
33
31
30
28
27
26
25
24
23
23
22
20
20
20
20
19
18
17
16
14
13
13
14
15
16
16
16
16
16
16
15
15
15
15
15
15
16
16
15
16
17
18
18
18
19
19
19
19
20
20
20
20
20
19
19
17
16
16
16
15
15
15
14
13
14
14
14
14
15
16
14
8
3
5
9
9
12
20
24
23
20
17
15
13
11
8
5
1
-5
-11
-17
-22
-28
-34
-40
-47
-54
-61
-67
-72
-76
-81
-87
-96
-107
-119
-129
-136
-139
-137
-130
-120
-107
-93
-80
-67
-54
-42
-30
-19
-11
-4
-1
-4
-9
-13
-18
-23
-26
-27
-28
-28
-27
-24
-19
-13
-6
0
6
10
13
14
14
15
16
17
19
21
22
22
22
23
24
24
25
27
29
31
33
36
37
38
39
41
43
45
46
48
51
53
55
56
58
61
62
62
65
68
70
72
74
75
76
75
76
76
75
75
75
74
73
73
72
70
68
67
65
63
61
59
57
55
53
51
49
48
47
46
44
43
40
37
35
34
33
32
31
30
29
28
28
27
25
24
23
22
22
20
19
18
18
17
16
16
16
16
16
17
16
16
15
15
15
15
16
16
15
16
17
17
17
17
16
16
15
14
14
13
12
12
12
12
12
12
12
12
13
14
14
14
13
13
11
10
10
9
9
10
10
11
11
12
12
12
13
14
11
4
1
5
8
9
15
23
26
25
22
19
17
15
13
10
6
0
-6
-12
-17
-22
-27
-33
-39
-47
-55
-62
-68
-72
-78
-84
-92
-103
-115
-128
-138
-144
-145
-141
-132
-118
-105
-93
-81
-70
-58
-46
-35
-24
-15
-9
-6
-8
-13
-18
-22
-26
-30
-31
-31
-31
-29
-26
-21
-15
-7
-1
5
10
13
15
16
18
18
19
20
20
21
22
22
24
25
27
28
30
31
32
34
36
38
40
42
44
45
47
49
50
52
54
57
59
61
63
64
65
65
66
68
69
71
72
73
74
75
75
75
74
73
73
72
71
70
70
69
67
66
64
62
61
59
58
56
55
53
51
49
47
45
42
40
37
34
32
32
32
31
30
29
27
27
26
25
23
23
22
20
19
19
19
19
19
20
20
19
18
17
16
16
15
16
17
17
18
19
18
17
17
17
17
17
16
16
15
16
16
15
16
16
15
15
15
15
15
15
15
14
14
14
13
13
13
13
13
12
12
12
12
12
11
10
10
10
9
9
8
2
-4
-3
2
3
6
14
21
22
20
17
16
15
14
13
11
7
3
-2
-7
-12
-17
-23
-29
-36
-44
-53
-60
-64
-69
-74
-81
-90
-102
-114
-126
-134
-138
-138
-133
-124
-111
-99
-87
-75
-63
-51
-40
-29
-19
-11
-7
-7
-11
-15
-19
-23
-27
-29
-30
-30
-30
-28
-24
-19
-11
-4
3
9
13
16
17
17
18
19
20
21
22
24
26
28
29
30
31
32
33
34
35
37
39
42
44
46
48
50
52
53
55
56
58
60
62
63
64
66
67
69
70
72
72
73
73
74
74
74
74
74
74
74
73
72
71
69
67
65
64
63
61
59
58
57
55
53
51
50
49
48
48
46
45
43
41
40
40
38
36
34
33
32
30
29
28
26
25
24
24
23
22
21
20
19
19
18
17
17
16
16
17
17
16
16
16
16
16
15
14
14
14
14
14
13
13
13
13
12
12
12
12
13
13
12
12
12
11
10
10
11
11
12
13
14
14
14
15
16
16
16
16
17
17
16
16
15
15
16
14
7
3
6
10
12
18
26
30
30
26
22
19
17
14
10
7
3
-1
-6
-10
-16
-23
-29
-34
-42
-50
-59
-65
-70
-75
-80
-87
-97
-109
-121
-132
-139
-141
-139
-132
-121
-108
-96
-84
-72
-60
-48
-36
-25
-15
-8
-4
-5
-9
-13
-18
-22
-25
-26
-27
-27
-26
-24
-21
-15
-7
0
7
13
16
18
20
21
22
23
23
24
24
25
26
27
28
29
30
31
32
34
35
36
37
38
39
41
43
45
47
48
49
51
54
56
58
60
62
64
65
66
67
68
69
70
71
72
73
73
73
74
74
74
74
73
72
70
68
67
66
65
64
63
62
60
59
57
56
54
53
51
49
47
45
42
40
38
36
33
32
30
28
26
24
22
21
21
20
19
19
19
18
17
17
16
15
15
16
16
17
17
17
18
18
17
18
18
19
18
18
19
19
18
18
18
18
18
18
17
18
18
17
17
17
17
17
18
18
17
17
17
17
17
17
18
18
18
18
17
15
14
14
13
13
13
13
13
14
15
10
2
1
5
6
9
16
24
26
24
21
18
16
13
11
9
6
2
-2
-7
-12
-18
-24
-31
-39
-47
-55
-63
-68
-73
-78
-84
-91
-102
-114
-127
-137
-142
-142
-138
-130
-118
-104
-91
-79
-67
-54
-42
-31
-21
-13
-7
-6
-9
-14
-18
-24
-28
-31
-32
-33
-32
-29
-25
-20
-13
-6
0
5
10
13
14
15
17
19
20
21
23
24
25
25
26
27
29
30
31
32
34
35
37
39
41
43
44
45
47
50
52
54
55
57
59
61
63
63
64
66
67
68
70
71
72
73
74
74
74
74
75
74
74
73
73
72
71
70
68
67
65
64
62
61
59
57
54
52
50
48
47
46
43
40
39
37
35
33
31
30
29
28
28
26
25
25
24
24
24
24
23
22
20
19
18
17
16
16
15
15
15
15
14
14
14
15
15
16
16
16
16
17
17
16
16
16
16
16
17
17
17
18
18
18
19
19
19
19
19
19
18
17
16
16
16
16
17
17
17
17
17
17
16
16
15
14
14
15
15
8
3
5
9
9
13
22
27
27
24
22
20
17
14
11
8
4
0
-5
-10
-16
-22
-28
-33
-40
-47
-55
-61
-65
-69
-74
-80
-89
-101
-114
-126
-133
-137
-135
-128
-117
-104
-91
-78
-65
-51
-39
-27
-17
-8
-2
2
2
-2
-6
-12
-17
-20
-22
-24
-24
-24
-22
-18
-13
-6
1
6
11
15
18
20
21
21
21
21
21
22
22
23
24
25
26
27
28
29
31
32
33
35
36
37
39
40
42
45
47
49
51
53
55
56
58
60
63
65
66
67
68
68
68
68
68
68
68
68
70
70
70
70
70
69
68
67
66
65
64
63
61
59
58
56
54
52
51
49
46
45
43
42
40
39
37
36
34
32
30
28
27
25
23
21
21
20
18
17
17
16
15
15
15
15
14
13
13
13
14
14
15
15
15
16
16
16
17
17
17
16
15
15
15
15
15
15
15
15
15
15
15
14
14
14
15
15
14
14
15
14
13
12
12
11
11
12
12
13
13
13
13
13
12
12
11
12
12
10
5
5
9
12
13
18
24
26
24
21
18
16
14
12
10
7
2
-3
-10
-16
-23
-29
-34
-41
-48
-56
-62
-67
-71
-75
-79
-85
-93
-103
-113
-120
-124
-124
-119
-111
-99
-86
-74
-62
-50
-38
-27
-16
-6
2
7
8
5
0
-5
-10
-13
-17
-20
-22
-23
-24
-22
-19
-12
-5
2
7
11
15
17
18
19
20
21
21
22
23
24
25
26
27
28
29
31
32
33
34
35
36
37
38
39
40
42
43
45
46
47
48
50
52
53
55
56
57
58
59
61
62
64
65
66
66
66
66
65
66
66
66
65
65
64
63
62
61
58
57
55
54
53
52
51
50
49
47
45
43
40
38
37
35
34
33
32
30
28
27
25
24
23
22
22
21
20
19
18
16
15
14
13
12
11
10
9
9
10
10
9
10
11
11
11
12
12
12
11
10
10
11
10
10
10
11
11
10
11
12
14
14
15
15
15
14
14
13
12
12
12
12
11
11
11
11
10
10
10
10
10
10
10
10
10
11
11
7
4
6
10
11
14
20
22
21
17
13
10
7
4
1
-2
-6
-11
-16
-22
-28
-34
-40
-45
-50
-57
-63
-67
-70
-72
-76
-81
-88
-97
-106
-114
-118
-119
-116
-108
-96
-84
-72
-60
-48
-38
-29
-19
-9
-2
4
7
7
3
-2
-8
-13
-18
-22
-25
-26
-25
-23
-19
-14
-6
1
7
11
13
15
16
17
18
19
21
22
22
24
25
25
25
27
29
30
31
33
35
36
38
39
41
42
44
46
48
50
52
54
55
55
57
59
60
60
61
63
64
64
65
67
68
69
69
69
69
69
68
68
67
66
65
64
63
62
61
59
57
56
54
52
51
50
49
47
45
44
43
42
40
39
37
35
32
31
30
29
27
26
25
24
23
22
21
20
19
19
18
17
16
15
14
13
13
14
14
13
13
13
13
14
14
14
15
15
15
16
17
17
17
18
17
17
16
16
15
15
14
13
14
13
12
12
11
11
10
10
11
11
11
11
11
11
11
12
12
12
12
11
12
12
13
12
12
14
12
7
5
9
13
15
21
27
29
26
23
19
16
14
11
9
5
1
-5
-11
-17
-24
-31
-39
-46
-53
-61
-69
-74
-78
-81
-87
-93
-101
-113
-124
-133
-138
-138
-134
-126
-114
-100
-87
-75
-63
-51
-39
-28
-17
-8
-1
2
0
-5
-9
-14
-18
-22
-24
-25
-24
-23
-19
-14
-8
-2
5
10
14
16
17
19
20
21
22
23
25
26
27
28
29
30
31
32
34
36
38
39
41
42
44
44
45
46
47
49
51
53
55
57
59
61
64
65
66
67
68
69
70
71
72
72
73
73
73
73
73
73
72
72
71
71
70
69
68
66
65
63
62
61
60
58
57
55
52
50
48
46
44
42
41
40
38
37
36
34
33
31
29
27
25
25
24
23
22
21
19
18
18
17
16
15
15
15
15
15
15
15
14
14
14
15
15
15
15
15
16
16
17
16
16
16
16
16
16
16
16
15
15
15
16
16
15
14
14
14
14
14
14
14
14
14
13
13
14
13
12
11
12
11
11
11
11
11
12
9
2
0
4
6
7
14
22
23
20
17
15
13
10
7
4
1
-4
-10
-16
-22
-28
-34
-41
-47
-54
-62
-69
-73
-76
-81
-87
-95
-105
-117
-128
-137
-141
-141
-137
-127
-114
-101
-88
-76
-64
-52
-40
-30
-20
-11
-6
-6
-9
-13
-18
-22
-26
-28
-29
-29
-29
-27
-22
-16
-9
0
7
12
16
18
19
20
20
21
22
23
24
26
27
28
29
30
31
32
33
34
35
36
37
40
41
43
44
46
48
49
51
54
55
56
58
60
62
64
65
66
67
69
70
71
72
73
73
74
74
74
73
72
72
72
70
70
69
68
67
66
64
62
60
57
55
53
52
51
50
49
48
46
44
42
40
38
37
35
34
33
32
31
29
27
26
25
23
22
21
21
19
18
18
17
17
17
17
17
17
17
17
17
17
17
16
16
15
15
14
14
14
14
14
15
15
15
15
15
16
16
17
17
17
17
17
16
16
15
15
16
16
16
16
17
17
16
17
16
16
16
16
16
15
15
14
14
14
15
15
9
3
4
8
9
12
20
25
25
21
18
16
13
10
7
4
0
-4
-10
-16
-22
-29
-35
-42
-49
-58
-66
-72
-77
-82
-87
-93
-103
-115
-127
-138
-144
-147
-145
-138
-127
-113
-100
-87
-73
-59
-47
-35
-24
-15
-8
-5
-6
-10
-13
-17
-21
-24
-27
-28
-27
-26
-23
-18
-12
-4
3
9
14
17
19
20
21
22
23
24
25
26
28
28
30
31
32
32
32
33
35
36
37
38
40
41
43
46
48
51
54
57
59
59
61
64
66
67
69
70
71
73
74
75
75
76
78
78
78
78
78
77
75
74
74
73
72
71
70
69
67
65
63
61
60
59
57
55
53
51
49
47
45
43
41
40
38
36
34
33
32
30
29
28
27
26
25
24
23
22
21
20
19
18
17
16
16
15
15
16
17
18
18
18
17
17
17
16
15
15
15
15
14
14
13
13
13
13
13
13
13
13
13
13
12
13
13
13
13
13
13
13
13
12
11
10
10
9
10
10
10
10
10
10
9
10
10
11
13
11
4
2
6
9
11
18
26
29
27
24
22
20
18
16
14
11
7
2
-3
-9
-16
-21
-27
-33
-41
-49
-57
-63
-67
-73
-79
-87
-98
-111
-123
-133
-139
-141
-138
-131
-120
-107
-95
-83
-72
-60
-48
-37
-26
-18
-12
-10
-12
-16
-20
-25
-29
-31
-32
-32
-31
-29
-26
-21
-15
-7
0
6
12
16
17
19
21
23
24
26
28
29
29
29
30
31
33
34
35
37
39
40
41
43
45
47
48
50
52
54
55
56
58
59
61
63
65
66
68
69
70
70
71
72
72
72
72
71
70
70
70
69
70
71
70
69
68
68
66
65
64
63
62
61
59
58
56
54
52
51
50
48
47
46
45
43
41
41
40
39
37
36
34
32
31
30
28
26
25
25
24
23
21
20
19
18
17
17
17
16
16
16
15
15
14
14
14
15
15
15
16
16
17
17
16
16
16
15
14
14
14
14
15
15
16
15
15
14
14
14
14
14
14
13
13
14
14
13
13
14
14
14
15
15
15
14
13
13
14
9
2
3
7
9
12
20
27
28
26
22
19
16
13
9
7
3
-1
-6
-11
-15
-21
-27
-32
-39
-47
-56
-63
-68
-74
-80
-86
-95
-106
-118
-129
-137
-141
-140
-135
-126
-114
-101
-89
-77
-64
-52
-40
-29
-19
-11
-6
-6
-8
-12
-17
-21
-24
-25
-26
-26
-25
-23
-20
-14
-8
0
7
12
16
19
20
21
21
22
23
23
24
25
26
27
27
28
30
32
34
36
37
39
40
42
44
47
49
51
54
56
58
58
59
59
61
63
65
67
68
69
70
70
71
72
73
73
73
74
74
74
74
74
74
73
73
72
70
69
68
66
63
61
60
60
59
57
55
54
52
50
47
45
43
41
39
39
38
37
36
35
33
32
31
30
29
27
26
25
24
23
22
22
21
20
21
21
20
20
21
21
21
21
20
20
20
19
19
19
18
17
17
17
18
18
17
17
17
16
15
15
14
14
14
14
14
14
13
12
11
10
10
10
10
11
11
12
13
13
13
12
12
12
13
13
14
14
14
15
13
6
2
5
9
10
15
24
29
28
25
23
21
18
16
14
11
7
4
-1
-7
-13
-20
-26
-32
-40
-49
-56
-62
-66
-71
-77
-85
-95
-106
-119
-130
-137
-140
-138
-133
-122
-109
-97
-85
-73
-61
-48
-36
-25
-15
-7
-4
-6
-10
-16
-21
-25
-28
-29
-30
-29
-27
-24
-20
-14
-6
1
6
10
14
17
19
19
20
21
22
22
23
25
26
27
28
30
32
33
35
36
37
38
40
41
43
45
47
48
50
51
53
55
57
59
61
62
63
64
65
66
67
69
70
71
72
72
73
73
73
74
74
74
73
72
71
69
68
66
64
63
61
60
58
57
56
55
54
52
51
49
47
45
43
42
39
37
36
35
34
32
31
30
29
28
28
27
26
26
25
22
20
19
18
16
15
15
15
14
14
14
14
14
14
14
14
15
15
14
14
14
14
14
15
16
16
17
18
18
18
18
17
16
14
14
15
15
15
15
14
14
14
13
13
13
13
13
13
13
13
13
13
13
12
13
13
13
14
16
12
5
4
9
10
11
17
23
25
21
17
14
12
9
7
5
3
-1
-7
-12
-17
-23
-30
-36
-41
-48
-56
-63
-68
-72
-77
-83
-91
-102
-114
-125
-134
-139
-139
-136
-128
-116
-103
-91
-79
-67
-54
-42
-31
-21
-12
-6
-5
-7
-11
-15
-19
-24
-27
-29
-29
-30
-28
-25
-20
-13
-5
2
7
10
12
13
14
14
15
18
20
21
21
22
24
24
24
26
27
29
30
32
34
35
37
39
40
42
43
45
47
50
53
55
57
59
60
62
63
64
65
67
69
70
71
72
73
73
73
74
75
75
76
76
75
73
72
71
68
66
65
64
62
60
58
57
55
55
54
52
50
48
45
42
39
37
34
33
32
32
31
29
28
27
27
25
23
22
21
20
19
18
17
16
16
16
16
17
17
16
16
15
14
12
12
12
11
11
12
13
14
14
14
14
14
14
14
14
14
14
14
13
14
13
13
13
13
13
13
13
13
13
13
14
13
12
12
11
11
10
11
11
11
10
10
10
10
9
10
10
3
-3
0
5
7
11
20
26
26
23
21
19
17
14
11
8
4
-2
-8
-13
-18
-24
-30
-35
-41
-49
-57
-64
-69
-74
-79
-86
-94
-104
-116
-126
-134
-137
-136
-131
-120
-107
-94
-83
-70
-58
-46
-35
-24
-13
-5
-1
-2
-6
-11
-16
-21
-25
-27
-28
-28
-27
-24
-22
-17
-11
-4
3
7
11
13
14
14
15
17
17
19
20
20
22
24
26
27
28
29
31
32
33
33
34
35
36
37
38
40
41
43
44
46
48
51
53
54
55
57
58
59
60
60
62
64
65
67
68
68
67
67
66
65
65
65
64
64
64
64
62
60
59
58
57
55
54
52
49
47
45
44
43
42
40
40
39
37
36
35
33
31
29
28
26
25
24
23
22
21
20
19
19
19
19
19
18
17
16
15
13
12
11
12
12
12
13
14
14
14
13
14
14
14
14
14
14
14
13
14
14
14
14
15
15
14
14
13
12
13
13
12
12
12
11
11
10
10
10
9
9
9
9
9
9
9
8
8
7
9
7
3
2
6
8
10
15
21
22
21
18
15
14
13
11
8
4
0
-5
-12
-17
-23
-28
-34
-40
-47
-54
-61
-65
-68
-71
-75
-81
-89
-99
-109
-117
-121
-122
-117
-108
-96
-84
-72
-59
-47
-37
-26
-16
-8
0
6
7
5
0
-6
-11
-15
-19
-23
-25
-26
-26
-25
-21
-15
-8
-1
5
9
12
14
14
15
17
19
19
20
21
21
21
22
23
24
26
27
29
31
33
35
36
36
38
40
41
43
45
47
49
50
51
54
56
57
59
61
62
62
63
64
64
64
64
64
64
64
64
66
66
65
64
64
62
60
59
59
58
57
56
55
54
52
51
50
49
48
47
46
44
41
39
37
35
34
34
33
32
31
30
29
29
28
28
26
24
23
22
21
19
19
19
19
18
17
16
15
15
14
14
13
13
14
13
14
14
14
14
13
12
12
12
11
11
11
10
10
10
10
10
9
8
8
8
8
9
9
10
11
12
13
13
13
12
12
11
11
12
12
12
12
12
13
14
13
14
14
12
8
10
15
17
20
25
28
27
23
20
17
15
12
8
5
0
-5
-12
-18
-25
-31
-39
-46
-52
-59
-65
-70
-73
-76
-79
-84
-91
-100
-109
-118
-123
-124
-120
-114
-104
-91
-79
-66
-55
-44
-32
-21
-12
-4
3
6
5
2
-3
-8
-14
-18
-22
-25
-27
-27
-24
-21
-15
-8
-1
4
9
13
15
17
18
18
19
20
20
21
21
22
23
23
25
27
29
30
33
35
36
38
39
41
42
44
45
46
48
50
52
54
56
58
59
60
62
63
64
65
67
68
68
69
69
70
70
70
71
70
70
69
68
66
65
64
62
61
60
58
56
54
53
52
51
49
48
46
45
43
41
39
38
36
34
33
32
30
28
27
26
25
24
23
22
20
19
18
16
15
15
15
14
15
15
15
16
17
17
17
17
17
17
17
17
18
18
19
19
19
19
18
17
16
16
15
14
14
15
16
16
15
15
14
13
12
12
12
12
11
11
11
12
12
12
11
11
11
11
11
11
11
10
11
10
10
11
10
4
1
5
9
11
15
22
27
26
23
21
20
18
15
12
9
4
-2
-8
-14
-21
-29
-37
-46
-55
-64
-71
-76
-79
-82
-87
-94
-103
-114
-125
-134
-140
-141
-137
-129
-117
-104
-92
-79
-66
-53
-42
-30
-19
-10
-3
-2
-4
-8
-12
-17
-21
-25
-27
-28
-28
-27
-23
-18
-11
-3
5
11
15
18
20
21
22
22
23
24
26
27
28
29
31
31
33
34
36
37
39
40
40
41
42
44
46
48
50
52
54
56
58
60
62
63
64
65
66
67
69
70
71
72
73
74
75
76
76
76
76
75
75
74
73
72
71
69
67
66
64
63
61
59
58
57
55
54
52
50
49
48
46
44
42
40
39
37
36
34
32
30
28
26
24
22
21
20
19
19
19
19
18
17
17
16
15
15
15
14
13
13
12
12
12
11
11
11
12
12
13
14
14
15
15
16
16
16
15
14
13
13
13
12
12
13
14
15
15
15
15
15
15
16
16
15
14
14
13
12
12
11
11
10
11
12
11
11
12
8
0
-1
3
6
8
14
20
21
18
15
13
11
9
6
3
-1
-5
-10
-17
-23
-29
-36
-43
-50
-58
-66
-73
-77
-80
-84
-91
-98
-108
-121
-132
-141
-146
-145
-140
-131
-118
-104
-91
-77
-64
-50
-37
-26
-15
-7
-2
-2
-5
-10
-15
-19
-23
-26
-27
-28
-28
-27
-24
-18
-10
-3
3
9
13
14
15
15
15
15
16
17
18
18
20
22
23
24
26
28
29
30
31
32
34
36
38
39
42
44
47
49
51
53
55
56
58
59
61
62
64
65
67
69
71
72
73
75
76
76
77
76
76
75
75
74
73
72
71
70
68
67
65
62
60
58
57
56
54
51
48
46
44
42
41
40
39
37
35
33
31
29
27
26
25
25
24
23
23
22
21
20
19
19
17
16
16
15
14
14
15
15
15
16
17
18
18
18
17
17
16
16
16
15
14
14
13
13
13
13
13
13
13
13
12
12
12
12
11
11
11
10
11
12
12
12
12
12
11
10
10
10
9
8
9
10
10
10
9
11
12
6
1
3
8
10
14
21
26
26
24
21
18
15
12
9
5
1
-4
-9
-15
-19
-25
-31
-37
-44
-52
-61
-68
-73
-78
-84
-91
-100
-111
-124
-136
-144
-147
-146
-141
-131
-118
-105
-92
-79
-67
-54
-41
-30
-21
-13
-10
-12
-16
-20
-24
-27
-30
-31
-31
-31
-30
-28
-24
-18
-11
-4
4
9
12
14
15
15
16
17
17
18
19
20
22
23
24
25
28
29
30
32
34
36
38
40
41
42
43
44
45
46
48
50
51
53
56
58
58
60
62
64
66
67
69
69
70
71
71
72
72
73
72
72
73
72
71
70
69
68
68
67
65
63
61
59
56
54
52
49
47
46
44
42
41
40
38
36
34
33
31
30
28
26
25
24
23
22
21
19
19
18
17
15
14
13
12
11
10
10
10
9
9
9
10
10
9
10
10
10
11
12
12
12
13
13
13
13
13
13
13
13
14
14
14
14
14
13
13
13
12
12
11
10
9
9
9
10
11
10
10
10
10
9
9
10
11
10
10
12
10
3
0
4
6
8
13
21
24
23
19
17
16
14
11
8
4
0
-6
-12
-17
-22
-28
-34
-40
-47
-56
-65
-70
-73
-78
-83
-90
-100
-111
-123
-133
-139
-141
-138
-131
-119
-106
-93
-81
-69
-58
-47
-37
-28
-20
-13
-11
-12
-16
-20
-24
-28
-30
-32
-32
-33
-31
-29
-24
-18
-12
-6
0
5
8
11
13
14
15
16
17
18
19
20
22
23
24
25
27
27
28
30
31
33
35
36
38
41
43
45
47
48
49
51
53
55
57
60
62
63
64
66
69
70
71
72
73
74
74
75
75
75
74
74
73
71
69
67
65
64
63
62
60
58
56
54
53
51
50
48
46
45
43
42
40
39
38
38
37
35
33
32
31
30
29
27
26
25
23
23
22
20
19
19
19
19
19
19
18
17
17
17
17
16
16
16
16
16
17
17
17
17
17
17
17
17
16
16
16
16
16
16
15
15
14
14
13
13
13
13
12
12
12
12
12
12
12
13
13
12
11
11
11
11
11
11
11
10
11
12
7
1
1
6
7
10
18
24
25
23
20
17
14
11
7
3
-1
-5
-10
-16
-21
-26
-33
-39
-46
-53
-61
-68
-73
-77
-83
-90
-98
-109
-121
-132
-141
-146
-145
-140
-132
-120
-107
-94
-81
-68
-56
-42
-30
-21
-12
-7
-6
-10
-14
-18
-21
-25
-27
-28
-28
-27
-26
-23
-18
-10
-3
3
9
12
14
16
16
16
17
18
19
19
20
21
23
24
25
27
29
29
31
32
33
34
35
35
37
39
41
44
46
49
51
53
55
58
59
61
63
65
66
67
69
69
70
70
71
71
72
72
72
72
72
71
70
70
70
68
67
66
64
63
62
60
59
57
55
54
54
52
50
49
47
45
42
39
36
34
32
30
28
27
25
24
22
20
19
18
17
17
17
17
16
15
15
14
13
12
12
12
13
13
14
14
14
14
14
13
12
12
13
12
11
11
12
11
11
11
12
12
11
11
12
12
12
12
12
12
13
13
13
13
12
13
12
12
12
12
11
10
9
9
9
10
10
10
10
10
11
9
2
-3
-1
3
4
10
19
23
22
19
16
14
12
11
9
5
1
-3
-8
-14
-20
-26
-32
-39
-46
-55
-63
-69
-73
-77
-83
-90
-99
-110
-122
-133
-141
-144
-142
-136
-126
-113
-100
-87
-74
-61
-50
-39
-29
-18
-9
-3
0
1
0
-4
-8
-12
-16
-19
-21
-19
-15
-10
-3
4
10
13
14
14
14
14
15
16
17
19
20
20
21
23
24
24
25
26
28
29
31
31
33
34
36
38
39
41
42
43
45
47
50
51
53
54
56
57
57
58
59
60
61
62
63
64
65
66
66
66
66
65
64
63
62
62
61
59
58
57
56
54
52
50
49
48
48
48
46
45
43
41
39
36
34
33
32
30
29
29
28
27
27
26
26
25
23
21
20
19
17
16
15
14
13
13
13
13
13
12
11
10
10
10
10
10
10
11
11
11
11
11
10
10
9
10
11
11
11
11
12
13
13
13
13
13
14
15
15
15
15
14
14
14
14
14
14
13
13
14
15
15
15
14
14
14
12
12
12
8
0
-1
3
6
8
15
23
25
23
20
18
15
12
10
7
3
-1
-5
-10
-16
-22
-28
-34
-42
-50
-58
-64
-70
-75
-80
-86
-94
-105
-118
-130
-139
-145
-146
-142
-132
-119
-106
-93
-79
-67
-55
-43
-32
-22
-13
-6
-5
-8
-13
-17
-22
-26
-29
-30
-30
-30
-28
-25
-21
-14
-7
0
7
12
15
17
18
18
18
19
19
20
20
21
22
22
22
23
23
24
26
27
29
31
33
35
37
38
39
41
44
46
48
51
53
56
58
60
62
64
65
66
68
70
72
73
75
78
79
79
80
80
79
77
75
73
73
72
70
69
68
66
64
62
60
58
55
53
51
48
46
45
42
40
39
38
36
35
33
32
30
29
28
27
26
25
24
23
22
21
19
17
16
15
14
13
13
13
12
11
11
12
12
12
13
13
13
13
13
13
14
14
15
16
15
15
14
14
14
14
14
14
14
13
13
13
13
12
11
11
10
9
8
7
7
6
6
7
8
9
9
10
11
11
11
12
11
10
12
12
6
1
3
8
10
15
23
29
29
26
23
20
18
16
15
12
9
5
0
-6
-11
-17
-24
-31
-39
-46
-54
-61
-65
-69
-74
-80
-88
-99
-111
-123
-131
-134
-133
-128
-119
-106
-93
-81
-69
-56
-45
-34
-25
-16
-9
-5
-5
-7
-11
-15
-20
-25
-28
-31
-33
-33
-31
-27
-21
-14
-7
0
5
9
12
13
14
15
17
18
19
21
22
23
24
25
27
28
28
29
31
32
33
34
36
39
40
41
42
44
44
45
47
48
50
52
53
55
56
56
58
59
60
60
61
61
62
63
64
64
64
64
64
63
62
62
62
61
60
60
59
58
56
55
54
53
52
50
49
47
46
44
42
41
39
37
36
34
32
30
30
29
28
26
25
24
23
22
22
21
19
18
17
15
14
14
13
11
10
9
8
8
8
8
8
8
8
9
10
10
9
9
9
9
9
9
9
9
10
10
10
10
10
11
12
12
11
11
11
10
10
9
9
10
10
10
10
10
10
10
10
9
9
8
8
8
8
8
9
7
2
1
5
8
10
14
20
22
21
17
15
12
8
4
0
-5
-10
-17
-24
-30
-37
-46
-55
-66
-78
-89
-93
-90
-77
-58
-32
-3
24
48
67
83
93
101
104
102
94
79
62
43
25
10
1
-2
-3
-3
-4
-4
-5
-5
-4
-4
-4
-5
-5
-5
-6
-6
-7
-6
-5
-5
-5
-4
-4
-4
-4
-4
-5
-5
-6
-6
-6
-6
-6
-6
-4
-4
-3
-3
-3
-4
-5
-5
-5
-5
-5
-5
-5
-6
-6
-6
-6
-7
-7
-7
-6
-6
-7
-7
-7
-7
-7
-7
-6
-5
-5
-5
-4
-3
-2
0
1
2
4
4
4
4
4
4
5
5
7
8
8
8
8
8
7
7
5
4
4
3
2
2
2
2
2
2
3
3
4
4
4
3
3
4
4
4
3
2
2
2
2
1
2
2
2
2
2
2
3
3
4
5
6
6
7
7
7
8
8
7
8
8
7
8
8
9
9
9
10
10
10
9
9
9
7
6
3
2
0
-3
-8
-12
-18
-23
-25
-20
-9
11
38
70
102
130
153
169
177
176
168
153
130
101
72
45
21
2
-8
-11
-11
-10
-9
-10
-11
-11
-11
-12
-11
-11
-11
-11
-11
-10
-10
-11
-12
-13
-13
-13
-13
-14
-14
-14
-15
-15
-15
-15
-15
-14
-15
-15
-15
-16
-17
-18
-18
-18
-18
-18
-18
-18
-19
-20
-20
-19
-19
-19
-19
-19
-19
-20
-20
-20
-21
-21
-20
-20
-19
-18
-17
-16
-16
-15
-14
-12
-11
-9
-7
-6
-4
-3
-1
0
2
3
3
4
5
5
5
4
4
4
4
4
4
5
5
6
5
4
4
3
3
2
2
3
3
3
3
3
3
3
4
4
5
5
6
7
8
8
8
9
9
9
8
8
9
11
11
11
11
12
13
13
12
11
11
10
10
10
10
10
10
10
12
13
13
13
14
14
14
14
13
13
14
14
14
14
13
13
13
12
12
12
11
12
12
12
13
14
14
14
14
14
15
15
15
16
16
15
15
15
15
15
16
16
16
16
15
15
16
17
17
17
17
17
18
17
16
16
15
13
14
15
12
7
5
10
13
15
21
27
29
26
22
20
18
16
13
10
7
2
-3
-9
-15
-21
-28
-35
-41
-48
-56
-64
-72
-78
-85
-91
-97
-102
-106
-106
-100
-88
-70
-46
-18
11
40
64
84
98
106
108
104
94
80
63
47
31
19
12
10
9
9
9
9
8
7
7
6
5
5
5
5
6
7
8
8
9
9
10
10
11
11
12
12
14
14
15
16
17
18
18
20
21
23
24
26
28
30
32
33
34
35
34
34
35
36
37
37
38
39
40
40
39
38
39
39
39
39
38
37
36
35
34
33
31
30
30
29
28
27
25
25
24
23
23
22
22
20
20
20
20
19
19
19
20
20
20
20
19
19
19
19
19
19
20
20
20
21
21
22
21
21
20
19
19
20
19
17
16
16
16
17
17
17
17
17
16
15
15
15
15
15
16
16
16
16
16
16
16
16
15
15
16
16
16
17
18
18
17
16
16
16
16
16
17
16
16
15
15
15
15
14
14
14
15
15
14
14
13
6
-1
-1
1
-2
-3
3
11
19
33
53
80
111
139
161
176
182
179
169
153
131
106
80
54
32
14
2
-4
-5
-5
-5
-6
-7
-7
-7
-8
-8
-8
-9
-9
-10
-11
-11
-11
-11
-11
-11
-10
-10
-11
-12
-13
-13
-14
-14
-14
-14
-13
-14
-14
-14
-15
-16
-16
-16
-17
-17
-17
-18
-18
-18
-18
-19
-20
-20
-21
-22
-22
-22
-23
-24
-25
-25
-25
-25
-25
-25
-25
-24
-24
-24
-23
-22
-20
-18
-16
-14
-12
-11
-10
-9
-8
-7
-6
-5
-4
-3
-1
1
1
1
2
3
2
3
3
3
4
5
5
6
6
6
6
6
6
6
6
7
8
8
8
8
7
8
8
7
7
7
8
8
9
9
11
11
11
12
13
14
14
14
15
15
15
15
15
15
14
15
15
14
13
13
13
13
13
14
14
16
16
15
14
13
11
7
4
2
0
-3
-6
-10
-13
-12
-5
10
32
61
93
126
155
176
188
190
183
169
150
126
98
71
46
24
6
-4
-8
-9
-9
-8
-8
-9
-9
-9
-10
-11
-12
-12
-12
-12
-12
-12
-11
-12
-13
-13
-14
-13
-13
-12
-11
-10
-11
-12
-12
-13
-14
-14
-15
-14
-13
-13
-13
-13
-13
-13
-13
-14
-15
-15
-16
-17
-17
-18
-19
-20
-21
-22
-23
-25
-25
-24
-25
-25
-25
-25
-24
-23
-23
-21
-18
-16
-14
-12
-10
-8
-6
-4
-1
1
3
5
7
8
10
12
13
15
16
16
17
17
17
17
17
16
16
15
15
15
15
15
15
15
15
15
14
13
12
12
12
12
11
11
11
10
10
10
11
10
11
11
11
12
13
13
14
14
13
13
13
13
13
12
12
13
14
14
14
14
14
14
14
13
14
14
14
14
14
14
15
15
14
14
13
10
8
5
3
1
-4
-9
-11
-10
-4
10
32
60
94
127
156
179
192
195
189
174
154
130
102
74
50
29
12
2
-2
-3
-3
-3
-4
-5
-5
-5
-5
-5
-5
-4
-4
-4
-6
-8
-10
-11
-12
-13
-13
-13
-13
-13
-13
-13
-13
-13
-13
-12
-13
-14
-14
-15
-15
-16
-17
-17
-17
-17
-17
-17
-18
-18
-18
-19
-20
-19
-19
-19
-20
-20
-21
-23
-24
-24
-23
-23
-22
-21
-21
-20
-18
-17
-15
-14
-12
-10
-8
-6
-4
-2
0
1
4
5
7
8
9
10
11
11
12
12
13
13
14
14
15
14
11
10
10
10
10
10
9
9
8
8
8
8
7
6
7
6
6
6
6
6
6
7
7
8
7
7
8
9
9
11
12
12
12
13
14
14
14
14
15
15
14
14
14
14
14
14
14
14
14
14
14
13
13
13
12
12
13
13
13
13
13
13
13
12
12
13
13
13
14
14
14
15
15
16
17
17
18
18
19
17
16
16
17
17
16
16
16
16
16
17
16
16
16
16
16
16
16
15
15
15
15
15
14
14
14
13
13
15
12
5
3
6
7
7
11
17
18
14
7
1
-4
-6
-3
7
24
48
77
107
135
155
168
173
169
159
144
123
97
73
49
27
11
0
-4
-5
-5
-4
-4
-4
-4
-5
-6
-6
-8
-10
-10
-10
-10
-10
-10
-10
-10
-11
-12
-12
-13
-13
-13
-12
-13
-13
-12
-13
-13
-13
-13
-13
-14
-14
-14
-14
-15
-16
-17
-18
-19
-20
-21
-21
-20
-21
-21
-22
-23
-23
-23
-24
-24
-24
-24
-24
-24
-25
-25
-25
-26
-25
-25
-25
-24
-23
-22
-20
-19
-17
-15
-13
-11
-8
-6
-4
-2
0
2
4
6
7
8
8
9
11
12
12
12
12
12
13
14
14
15
16
15
14
14
12
11
10
10
10
10
9
9
9
8
7
6
5
5
4
3
3
3
3
4
4
5
6
6
6
7
7
8
8
9
9
9
10
11
13
13
13
14
14
13
13
14
14
14
14
14
14
14
12
12
12
12
11
9
7
5
3
1
-3
-7
-10
-10
-4
9
31
59
91
126
157
179
193
196
189
175
156
132
104
76
50
27
10
-1
-5
-5
-5
-5
-5
-6
-7
-8
-9
-9
-9
-10
-9
-9
-9
-9
-9
-9
-10
-10
-11
-11
-11
-12
-12
-12
-13
-14
-14
-14
-14
-14
-15
-15
-15
-15
-15
-15
-15
-15
-16
-17
-17
-17
-19
-21
-21
-21
-21
-21
-21
-21
-21
-22
-22
-23
-23
-23
-23
-22
-22
-22
-21
-20
-18
-17
-15
-14
-12
-10
-8
-6
-4
-2
-1
1
3
5
7
8
8
9
10
10
10
10
9
8
8
8
8
7
6
7
7
7
6
6
6
6
6
6
6
6
6
6
6
7
7
8
8
9
11
11
11
11
11
13
13
12
13
12
12
12
12
11
12
11
11
11
11
11
11
12
12
13
13
14
14
14
14
14
14
14
13
11
7
4
1
-2
-6
-10
-15
-15
-11
-1
17
41
71
103
136
163
182
192
192
183
167
145
120
91
63
39
19
3
-6
-9
-10
-10
-10
-10
-11
-11
-12
-12
-12
-12
-13
-13
-13
-13
-13
-13
-13
-14
-15
-15
-16
-16
-16
-17
-17
-16
-16
-16
-15
-16
-17
-18
-18
-19
-20
-20
-20
-20
-20
-21
-21
-22
-24
-25
-26
-26
-27
-28
-28
-29
-29
-30
-30
-30
-31
-31
-30
-30
-30
-30
-29
-27
-26
-25
-23
-21
-18
-15
-11
-8
-5
-4
-2
1
3
4
5
7
8
9
10
11
11
11
11
12
12
11
12
12
12
12
11
11
10
9
8
9
8
7
7
6
5
4
3
3
2
2
2
3
3
3
3
4
4
5
5
6
6
6
6
6
7
8
8
9
10
11
11
11
11
11
11
11
10
10
10
11
12
13
13
13
13
13
12
11
8
5
3
-1
-5
-9
-13
-16
-15
-7
8
32
62
96
131
161
183
197
201
195
180
159
133
104
75
48
26
8
-2
-6
-7
-6
-6
-6
-7
-8
-8
-8
-8
-8
-8
-8
-9
-9
-10
-11
-11
-11
-12
-12
-13
-13
-13
-13
-13
-13
-14
-14
-14
-15
-17
-17
-18
-19
-20
-20
-20
-20
-21
-22
-22
-21
-22
-22
-21
-22
-23
-24
-25
-25
-25
-25
-24
-23
-23
-22
-21
-21
-20
-19
-18
-17
-16
-14
-13
-12
-11
-9
-7
-5
-3
-1
0
2
3
4
6
8
9
10
11
12
13
14
13
13
13
12
12
11
11
11
10
9
8
7
6
5
4
3
4
4
4
4
4
3
3
3
3
4
5
6
6
7
7
7
7
7
7
7
8
9
10
11
12
12
12
14
15
16
16
17
16
16
15
14
14
14
14
15
16
17
17
16
16
16
15
16
16
16
16
16
16
15
15
15
14
14
14
13
14
14
15
15
16
16
16
16
16
15
15
15
15
15
15
17
17
18
18
18
17
17
17
16
16
16
16
17
18
19
19
19
18
18
17
17
18
14
7
7
13
15
17
24
30
32
29
26
24
22
20
17
15
13
9
3
-3
-9
-15
-21
-27
-33
-39
-45
-52
-55
-57
-61
-66
-73
-82
-92
-103
-112
-116
-116
-113
-106
-96
-83
-72
-59
-47
-35
-23
-13
-3
6
12
14
11
6
1
-5
-11
-16
-19
-21
-23
-22
-19
-15
-9
-2
5
11
16
19
22
24
24
24
24
24
24
24
24
24
26
27
28
29
31
33
35
36
37
37
37
37
38
39
41
43
44
46
48
50
52
54
56
58
58
58
58
59
60
61
61
62
63
64
65
66
66
67
67
67
66
66
66
66
66
65
64
63
62
61
60
59
58
58
58
57
57
56
55
53
50
48
47
46
44
44
43
42
41
39
38
36
34
32
32
30
29
29
28
27
27
27
26
26
26
26
26
26
26
26
25
25
25
25
24
23
22
22
21
20
20
20
21
21
21
20
20
20
19
18
18
18
16
16
15
15
15
15
16
16
15
14
14
14
13
13
13
12
12
12
13
13
12
12
11
7
4
8
12
13
17
23
25
25
23
20
17
15
13
10
6
1
-4
-10
-15
-21
-28
-34
-41
-48
-55
-61
-65
-68
-70
-74
-80
-88
-99
-109
-117
-122
-122
-117
-109
-97
-84
-72
-60
-48
-38
-28
-17
-6
6
17
23
25
24
21
15
10
4
0
-2
-1
2
4
7
10
13
14
14
15
16
17
17
18
19
19
19
20
21
22
23
25
26
27
28
28
30
31
32
33
34
36
38
39
41
42
44
45
46
48
49
51
53
54
55
56
56
56
56
56
57
58
58
58
58
57
57
56
55
54
54
53
52
52
50
50
49
48
46
44
43
41
40
38
36
35
34
33
32
30
29
27
25
23
22
20
19
18
17
17
15
14
13
13
12
12
11
10
10
10
9
8
9
9
9
8
8
8
7
7
8
9
10
10
11
10
10
9
8
8
9
9
11
11
11
13
13
13
14
14
14
13
13
13
13
12
12
12
12
12
12
11
11
10
9
9
9
9
9
10
11
11
11
11
10
10
7
2
2
6
9
11
16
21
22
19
15
12
9
7
4
1
-3
-7
-12
-18
-23
-29
-36
-43
-49
-56
-63
-69
-73
-75
-78
-82
-87
-96
-106
-115
-122
-126
-125
-119
-111
-99
-85
-73
-62
-51
-41
-30
-21
-12
-4
2
2
-1
-6
-11
-16
-21
-25
-27
-28
-27
-25
-22
-18
-12
-6
0
6
10
12
13
14
15
16
16
16
17
19
20
22
23
23
24
26
28
30
32
34
37
39
40
42
43
44
46
48
50
52
54
55
56
57
57
59
60
61
63
64
64
65
66
66
67
68
68
68
67
66
65
64
63
62
61
59
59
57
55
54
53
52
51
49
48
46
45
43
42
41
40
38
36
34
32
30
29
28
27
27
27
25
24
24
24
23
23
23
22
21
19
18
17
17
16
15
15
15
15
14
13
14
14
14
14
14
15
15
15
15
15
15
15
15
14
14
14
13
13
12
12
12
11
10
10
10
9
10
10
10
10
10
9
9
9
8
7
7
8
8
9
9
9
10
10
10
11
7
2
3
6
8
11
17
22
21
17
14
12
10
8
5
2
-2
-7
-13
-19
-25
-31
-39
-46
-53
-61
-69
-75
-79
-82
-87
-93
-101
-112
-124
-135
-142
-145
-143
-137
-126
-112
-98
-85
-72
-60
-47
-35
-24
-15
-8
-3
-4
-7
-10
-14
-19
-23
-25
-26
-27
-26
-23
-20
-14
-7
1
6
11
15
17
18
18
19
20
22
23
23
24
25
26
26
26
29
30
32
34
36
37
38
39
40
42
43
45
48
50
52
54
55
57
58
59
61
62
64
65
66
67
67
67
68
70
70
70
71
71
68
67
67
66
65
64
64
62
61
60
58
56
53
51
49
47
45
43
41
40
39
37
36
35
33
31
29
27
25
23
23
22
22
21
21
21
20
18
17
16
15
14
13
13
13
13
13
13
13
13
13
12
12
12
11
11
11
11
12
12
12
12
12
12
12
12
12
13
12
13
13
14
14
14
13
12
11
10
9
10
10
10
10
10
10
9
9
9
9
10
10
10
10
10
11
10
9
10
8
1
-3
1
4
5
10
18
23
22
20
18
16
13
10
7
4
-1
-6
-11
-16
-23
-30
-37
-43
-50
-58
-65
-71
-74
-78
-83
-89
-98
-109
-122
-133
-140
-142
-140
-134
-122
-109
-97
-84
-71
-58
-46
-34
-23
-14
-7
-5
-6
-10
-15
-20
-24
-27
-30
-31
-31
-30
-27
-22
-17
-10
-3
4
8
12
14
16
16
16
16
17
19
21
22
24
26
28
30
32
33
34
35
35
35
37
39
41
42
44
46
46
48
50
52
53
55
57
58
60
61
62
63
64
65
65
66
67
68
69
70
71
70
69
68
68
66
65
64
62
61
59
59
59
58
57
56
54
52
50
47
44
43
42
40
40
39
38
36
35
34
32
30
29
28
26
25
24
23
22
21
21
21
21
21
20
20
19
18
17
16
15
15
15
15
15
16
16
16
15
15
16
15
14
13
13
13
13
13
13
14
13
13
14
13
13
13
13
14
13
12
12
12
12
12
13
13
13
13
13
13
14
13
12
13
12
12
13
13
13
14
9
2
1
5
7
9
15
22
24
21
18
15
12
10
8
5
1
-3
-8
-14
-19
-25
-32
-37
-43
-50
-59
-66
-71
-76
-81
-87
-95
-104
-115
-126
-135
-140
-140
-137
-129
-117
-104
-91
-79
-67
-55
-42
-31
-21
-12
-6
-5
-8
-13
-17
-21
-24
-28
-30
-30
-29
-27
-24
-19
-12
-4
3
8
12
14
15
17
17
18
20
21
22
22
22
23
25
25
25
27
29
30
31
32
34
35
37
39
42
44
45
46
48
51
52
53
55
58
60
62
65
66
67
68
69
70
71
71
72
72
73
74
74
74
74
73
71
69
67
65
63
62
61
59
58
56
54
52
49
47
45
44
42
39
37
36
35
33
31
30
28
27
26
24
23
20
18
17
16
16
16
16
16
15
13
12
11
9
9
10
11
11
12
13
13
14
15
15
15
15
15
15
15
15
16
15
15
15
14
14
14
13
13
13
13
13
13
13
12
11
11
10
10
10
10
10
9
9
8
8
7
7
7
7
7
8
8
7
6
7
7
1
-5
-2
3
4
8
17
23
23
20
18
16
14
12
9
6
3
-1
-6
-11
-17
-23
-30
-37
-44
-52
-60
-66
-71
-76
-81
-88
-96
-107
-119
-130
-138
-141
-140
-135
-126
-113
-100
-88
-75
-63
-51
-39
-29
-19
-11
-7
-8
-12
-17
-22
-26
-30
-32
-32
-33
-32
-30
-27
-22
-15
-8
-1
5
9
12
14
16
16
16
17
18
20
21
23
24
26
27
27
29
30
31
33
36
38
39
40
42
43
44
45
46
48
51
52
54
55
57
58
59
60
62
63
64
65
66
67
67
67
67
67
67
67
67
68
68
68
66
65
64
62
60
57
55
54
53
52
51
49
48
46
45
43
41
39
38
36
35
33
31
31
30
29
28
28
28
27
26
24
23
22
20
19
18
17
16
15
14
13
12
12
13
13
13
13
12
11
11
12
11
11
11
12
13
14
14
14
14
14
14
14
14
13
12
11
11
11
11
11
11
10
10
10
10
10
9
9
10
9
9
9
10
9
10
10
11
11
10
10
11
9
2
0
4
7
8
14
22
24
21
18
15
13
10
8
6
2
-2
-6
-12
-17
-23
-30
-36
-42
-50
-57
-64
-69
-73
-77
-83
-90
-100
-112
-123
-133
-139
-140
-138
-131
-119
-106
-94
-82
-69
-56
-44
-33
-22
-13
-8
-6
-8
-12
-16
-21
-26
-29
-31
-32
-32
-29
-26
-21
-14
-7
-1
5
9
11
13
15
16
17
18
19
20
20
20
20
20
21
23
24
26
28
30
32
34
36
38
39
40
42
45
47
48
51
52
54
56
58
60
61
62
63
65
66
67
69
70
70
70
69
69
69
68
68
67
66
66
66
65
65
64
63
62
60
58
57
55
53
50
49
47
45
43
41
39
37
35
34
33
31
30
29
27
26
25
23
21
20
19
18
18
16
16
16
16
16
16
15
15
15
15
15
15
14
14
14
14
14
13
13
13
12
12
12
12
13
14
14
14
15
14
13
12
12
12
11
12
12
12
11
11
11
10
9
9
8
8
7
7
7
7
7
8
9
10
10
10
11
10
10
11
6
-1
-1
4
7
10
19
26
27
24
22
19
16
12
9
5
1
-3
-7
-12
-18
-23
-29
-36
-43
-50
-59
-66
-71
-75
-80
-87
-95
-106
-118
-130
-138
-143
-142
-138
-129
-117
-104
-90
-78
-66
-54
-43
-33
-24
-16
-11
-10
-13
-17
-21
-25
-28
-31
-33
-32
-31
-29
-25
-20
-12
-5
2
8
13
16
18
19
19
20
20
21
22
23
24
25
26
27
29
30
32
33
35
36
38
40
42
43
43
44
45
46
48
50
52
54
55
56
57
60
61
62
63
64
65
66
66
67
67
68
68
68
67
67
66
65
66
67
66
65
64
63
62
60
57
56
54
51
48
47
46
44
42
41
39
38
36
35
34
32
31
29
28
26
24
23
22
21
20
18
18
17
16
15
14
13
12
12
11
11
11
11
12
12
12
11
11
10
10
10
10
11
11
12
12
12
12
13
13
13
13
13
13
13
13
12
12
12
11
11
11
11
11
12
12
12
12
12
11
10
9
9
9
8
8
8
8
8
7
9
7
0
-4
0
3
4
9
18
22
19
16
13
10
7
6
4
2
-1
-5
-9
-15
-21
-27
-34
-41
-48
-56
-63
-69
-74
-79
-84
-91
-101
-112
-124
-135
-142
-144
-143
-136
-125
-112
-99
-86
-74
-62
-50
-39
-28
-19
-13
-9
-10
-12
-16
-21
-25
-29
-33
-34
-34
-33
-30
-26
-19
-12
-5
1
5
8
9
11
12
13
14
16
17
17
19
20
21
22
23
25
27
29
30
32
34
37
40
43
45
47
49
50
50
50
50
52
54
56
57
59
61
63
64
66
68
69
69
69
70
70
70
69
68
68
68
68
66
66
66
65
65
63
62
59
56
53
50
47
45
43
41
39
38
38
37
36
35
33
32
30
28
26
25
23
23
23
22
21
20
19
19
17
16
15
14
13
13
12
12
12
11
11
11
12
12
12
12
12
13
13
13
13
12
12
11
11
11
11
11
11
11
11
11
11
11
11
11
11
10
10
9
8
7
7
7
7
7
7
6
6
6
6
6
6
7
7
9
10
11
12
13
9
3
3
7
10
13
19
24
25
22
18
15
12
10
8
5
1
-3
-8
-12
-17
-23
-29
-36
-43
-50
-59
-66
-70
-72
-76
-80
-86
-95
-107
-118
-126
-131
-132
-128
-119
-108
-96
-83
-70
-57
-46
-35
-25
-15
-7
-2
-1
-4
-8
-12
-17
-21
-24
-26
-28
-29
-28
-25
-21
-15
-8
-1
5
8
10
12
14
14
15
15
16
17
18
19
20
20
21
23
24
25
27
29
30
32
33
34
35
35
36
38
40
41
43
44
46
48
49
51
53
54
55
56
57
57
58
58
58
59
61
61
61
61
61
60
59
58
58
58
57
57
56
56
54
52
50
48
46
44
42
41
40
39
38
37
36
34
32
31
30
28
26
23
21
19
18
17
15
14
13
11
10
9
9
8
8
7
8
8
8
8
9
9
10
9
9
8
7
7
7
7
7
7
7
7
7
6
7
7
7
8
9
9
9
10
10
9
9
9
9
9
10
10
9
8
8
7
7
6
6
6
5
4
4
5
6
6
6
6
6
6
1
-2
1
4
6
9
13
13
9
3
-5
-13
-22
-31
-39
-44
-41
-31
-13
11
39
68
94
114
129
137
140
136
125
106
82
57
33
13
-2
-8
-10
-10
-11
-11
-12
-13
-13
-13
-14
-15
-15
-15
-15
-14
-14
-15
-16
-16
-16
-16
-16
-16
-17
-16
-16
-17
-17
-17
-18
-20
-20
-21
-22
-22
-22
-21
-21
-21
-21
-21
-22
-23
-23
-23
-23
-24
-25
-26
-28
-30
-32
-33
-34
-34
-35
-34
-33
-33
-32
-31
-30
-29
-28
-27
-24
-23
-21
-18
-16
-14
-12
-11
-9
-7
-6
-5
-4
-3
-2
-2
-2
-2
-1
-1
-1
-1
-1
-1
0
-1
-1
-1
-2
-4
-5
-5
-6
-6
-6
-6
-7
-8
-8
-8
-8
-8
-7
-7
-8
-8
-7
-6
-5
-4
-3
-2
-2
-2
-1
-1
-2
-1
-1
-1
0
1
2
2
2
3
4
4
3
3
4
4
5
6
7
7
7
7
6
6
6
5
3
1
-1
-3
-6
-10
-15
-22
-28
-31
-30
-21
-4
22
53
85
115
139
156
165
166
160
147
128
102
74
48
25
6
-6
-11
-12
-12
-12
-12
-12
-13
-14
-14
-15
-16
-17
-18
-18
-18
-17
-16
-16
-16
-16
-17
-17
-17
-18
-19
-19
-19
-19
-19
-19
-20
-21
-21
-23
-24
-24
-24
-25
-24
-23
-23
-23
-24
-24
-24
-24
-25
-25
-24
-24
-24
-24
-23
-22
-22
-23
-23
-23
-23
-22
-21
-20
-20
-19
-17
-16
-16
-15
-12
-10
-9
-7
-4
-2
0
1
3
3
4
4
5
6
6
6
5
5
5
5
5
5
6
6
6
5
4
3
0
-1
-1
-1
-1
0
0
1
1
0
-1
0
1
1
1
2
3
4
5
6
7
8
9
10
9
9
8
7
7
7
7
7
7
7
8
8
8
8
8
8
8
8
9
10
11
10
10
10
9
8
8
7
7
7
8
8
7
8
8
6
5
6
7
6
6
6
6
7
8
9
10
10
10
10
9
8
8
9
8
9
10
12
12
12
12
13
13
12
12
11
11
11
11
12
12
11
11
11
11
10
11
11
7
1
3
8
9
12
18
24
24
21
19
16
15
13
11
7
4
-2
-9
-17
-25
-34
-43
-52
-62
-72
-82
-90
-95
-93
-85
-70
-49
-25
0
24
43
58
71
80
84
84
81
74
61
46
32
18
6
0
-2
-3
-3
-3
-2
-2
-2
-1
-1
-2
-2
-3
-3
-3
-3
-2
-2
-2
-3
-3
-2
-3
-4
-3
-2
-2
-2
-1
-1
-1
0
1
2
3
3
3
3
4
5
5
5
6
7
8
9
10
11
12
13
14
14
14
15
15
15
14
14
14
13
12
10
10
9
8
8
8
8
8
9
9
8
8
8
8
9
9
9
10
11
12
12
12
12
12
11
11
10
10
10
9
9
10
11
12
11
12
12
12
11
11
11
11
10
10
11
11
10
9
8
7
7
7
7
6
6
6
5
6
7
8
8
8
9
9
9
9
8
8
9
8
8
9
9
9
9
9
9
9
9
9
8
8
8
7
7
8
9
8
8
8
8
8
7
8
9
9
9
10
11
11
11
12
13
13
14
13
7
3
7
11
12
17
26
30
27
23
20
17
14
11
8
4
-1
-6
-12
-18
-24
-31
-39
-46
-53
-60
-67
-72
-76
-81
-87
-95
-107
-120
-134
-145
-151
-153
-150
-143
-131
-119
-106
-93
-79
-65
-52
-40
