-120
-116
-109
-106
-107
-108
-108
-104
-100
-99
-99
-102
-105
-104
-100
-98
-100
-103
-101
-87
-67
-54
-58
-74
-95
-122
-161
-211
-259
-300
-327
-321
-277
-224
-184
-154
-120
-78
-42
-29
-42
-66
-85
-95
-95
-91
-88
-90
-91
-87
-82
-83
-87
-89
-90
-87
-84
-83
-85
-88
-90
-85
-81
-82
-87
-90
-90
-87
-83
-82
-83
-86
-87
-83
-79
-79
-83
-87
-87
-83
-79
-80
-83
-86
-86
-83
-79
-77
-80
-83
-84
-80
-76
-76
-78
-80
-80
-75
-71
-71
-74
-77
-77
-73
-69
-69
-71
-73
-75
-72
-68
-69
-74
-77
-79
-78
-77
-77
-81
-86
-87
-84
-81
-82
-84
-87
-88
-85
-82
-81
-84
-88
-89
-85
-81
-82
-85
-88
-89
-85
-82
-82
-86
-90
-91
-87
-84
-84
-87
-91
-92
-89
-86
-86
-89
-92
-93
-89
-85
-85
-88
-92
-92
-88
-85
-86
-89
-93
-94
-92
-89
-90
-94
-97
-97
-91
-86
-86
-89
-92
-95
-94
-95
-99
-104
-107
-109
-106
-103
-101
-102
-102
-100
-96
-91
-88
-88
-89
-88
-84
-82
-82
-84
-86
-87
-83
-80
-81
-84
-85
-78
-61
-45
-42
-54
-75
-100
-132
-175
-223
-267
-299
-307
-273
-213
-160
-127
-101
-66
-25
1
-1
-22
-46
-64
-73
-75
-76
-76
-77
-76
-72
-70
-71
-75
-79
-79
-74
-70
-71
-75
-78
-79
-76
-73
-73
-76
-78
-78
-75
-72
-73
-76
-79
-78
-74
-71
-72
-76
-79
-79
-75
-73
-74
-76
-77
-76
-73
-70
-70
-73
-76
-76
-72
-69
-70
-73
-75
-73
-68
-66
-67
-70
-73
-72
-69
-66
-67
-71
-74
-74
-71
-69
-73
-77
-80
-81
-79
-79
-81
-85
-87
-85
-81
-80
-82
-85
-88
-88
-84
-81
-82
-85
-89
-88
-83
-80
-81
-84
-87
-86
-81
-79
-80
-84
-87
-86
-82
-79
-81
-84
-87
-87
-84
-82
-83
-87
-89
-88
-84
-81
-83
-85
-87
-87
-84
-82
-83
-88
-91
-91
-88
-87
-89
-92
-93
-91
-86
-83
-85
-89
-93
-95
-94
-95
-100
-104
-107
-108
-104
-99
-98
-99
-100
-98
-92
-86
-85
-87
-88
-86
-81
-78
-79
-83
-87
-86
-82
-80
-81
-84
-81
-67
-48
-39
-45
-64
-90
-121
-160
-206
-254
-294
-314
-297
-244
-186
-144
-114
-81
-42
-7
2
-16
-43
-64
-75
-76
-74
-72
-74
-76
-76
-73
-71
-73
-76
-79
-79
-76
-74
-76
-78
-81
-80
-75
-72
-74
-78
-81
-80
-77
-75
-76
-78
-80
-79
-75
-73
-75
-79
-80
-79
-76
-75
-78
-81
-81
-78
-75
-74
-75
-77
-78
-77
-74
-73
-74
-77
-79
-76
-71
-69
-71
-74
-76
-73
-69
-67
-70
-74
-76
-74
-71
-72
-76
-80
-83
-83
-81
-81
-84
-88
-90
-88
-86
-87
-89
-91
-93
-90
-86
-86
-89
-92
-94
-91
-87
-84
-87
-91
-93
-90
-86
-85
-88
-91
-93
-91
-87
-87
-90
-93
-94
-91
-87
-87
-89
-92
-93
-91
-87
-86
-89
-93
-95
-93
-90
-89
-92
-97
-99
-96
-93
-94
-97
-100
-101
-97
-91
-88
-91
-96
-99
-99
-99
-101
-105
-109
-112
-111
-108
-105
-104
-105
-106
-102
-96
-93
-93
-94
-95
-92
-87
-86
-88
-92
-94
-90
-86
-86
-89
-92
-88
-74
-54
-42
-47
-63
-85
-111
-148
-198
-250
-296
-324
-315
-269
-214
-170
-136
-101
-59
-21
-7
-22
-50
-70
-79
-82
-82
-81
-82
-84
-81
-77
-77
-79
-83
-85
-82
-78
-78
-82
-85
-86
-82
-78
-78
-82
-85
-85
-82
-78
-78
-80
-82
-83
-81
-78
-79
-82
-85
-85
-81
-78
-79
-82
-85
-85
-81
-77
-78
-80
-83
-83
-80
-75
-76
-79
-81
-81
-77
-74
-72
-74
-76
-76
-73
-68
-69
-74
-77
-77
-73
-70
-71
-75
-80
-82
-80
-79
-82
-86
-90
-91
-89
-86
-87
-91
-95
-95
-92
-88
-88
-91
-94
-94
-90
-87
-88
-91
-94
-94
-90
-87
-88
-91
-94
-95
-91
-88
-88
-90
-93
-94
-91
-88
-89
-91
-94
-95
-91
-87
-88
-92
-95
-94
-90
-86
-88
-93
-97
-96
-92
-91
-94
-98
-101
-100
-96
-92
-92
-95
-98
-97
-94
-92
-96
-104
-110
-111
-107
-105
-108
-111
-111
-109
-105
-100
-99
-100
-100
-98
-93
-90
-89
-91
-94
-95
-91
-87
-88
-92
-95
-94
-89
-80
-66
-52
-46
-51
-62
-79
-110
-158
-213
-264
-303
-322
-307
-263
-212
-167
-127
-88
-52
-25
-23
-41
-61
-73
-83
-90
-91
-87
-82
-80
-81
-84
-87
-87
-84
-82
-83
-86
-90
-89
-84
-82
-84
-88
-90
-88
-85
-83
-85
-87
-88
-87
-84
-81
-83
-86
-89
-88
-83
-81
-84
-88
-90
-89
-85
-83
-84
-87
-89
-88
-84
-80
-80
-84
-86
-86
-81
-77
-78
-81
-84
-83
-79
-75
-75
-78
-81
-80
-74
-72
-74
-78
-81
-81
-78
-77
-79
-84
-90
-92
-89
-87
-90
-93
-95
-95
-93
-91
-92
-95
-97
-96
-92
-90
-91
-94
-97
-96
-92
-89
-91
-95
-98
-96
-92
-90
-92
-96
-99
-97
-92
-90
-92
-95
-97
-97
-93
-91
-93
-97
-99
-98
-94
-92
-94
-96
-97
-97
-94
-93
-96
-101
-104
-103
-99
-98
-101
-105
-107
-105
-100
-97
-100
-105
-108
-109
-108
-110
-115
-119
-121
-120
-115
-112
-112
-113
-114
-111
-106
-101
-101
-102
-102
-100
-96
-95
-97
-100
-101
-100
-96
-94
-97
-101
-97
-78
-55
-43
-48
-64
-83
-110
-153
-209
-265
-315
-352
-353
-314
-260
-211
-170
-128
-83
-47
-40
-58
-81
-95
-99
-94
-89
-87
-91
-92
-89
-85
-85
-88
-91
-94
-92
-87
-86
-89
-93
-95
-92
-89
-89
-91
-93
-95
-93
-89
-87
-90
-94
-96
-94
-90
-89
-91
-94
-96
-95
-91
-89
-92
-95
-96
-93
-89
-87
-89
-91
-92
-89
-84
-83
-85
-87
-86
-83
-78
-76
-76
-80
-83
-81
-76
-75
-77
-79
-79
-78
-76
-75
-79
-84
-87
-87
-85
-85
-88
-93
-96
-95
-93
-94
-97
-102
-105
-103
-100
-100
-105
-109
-110
-107
-103
-103
-105
-109
-112
-109
-104
-104
-107
-111
-112
-109
-106
-107
-110
-113
-115
-113
-110
-109
-111
-115
-117
-115
-111
-110
-114
-117
-118
-115
-113
-114
-117
-120
-121
-118
-115
-117
-122
-127
-130
-128
-125
-124
-126
-130
-130
-126
-123
-125
-129
-134
-140
-142
-141
-141
-144
-148
-149
-145
-138
-136
-138
-140
-138
-133
-127
-125
-126
-129
-131
-128
-123
-122
-125
-128
-129
-126
-122
-121
-117
-103
-82
-64
-62
-75
-94
-123
-169
-225
-278
-332
-383
-406
-381
-325
-269
-225
-182
-135
-99
-87
-95
-109
-120
-126
-124
-118
-112
-112
-114
-118
-118
-116
-114
-115
-118
-121
-122
-118
-115
-116
-120
-124
-125
-121
-117
-115
-118
-122
-125
-122
-118
-118
-120
-122
-123
-120
-117
-117
-120
-124
-125
-122
-118
-117
-120
-124
-124
-119
-115
-116
-117
-119
-118
-114
-110
-110
-112
-113
-112
-108
-104
-103
-106
-108
-107
-104
-100
-100
-103
-106
-108
-106
-104
-105
-109
-114
-115
-113
-112
-115
-119
-122
-124
-122
-120
-123
-128
-131
-132
-130
-128
-129
-132
-135
-136
-133
-131
-132
-134
-138
-138
-134
-131
-133
-137
-139
-139
-136
-134
-135
-139
-141
-141
-137
-133
-135
-139
-142
-143
-140
-137
-138
-141
-143
-142
-139
-137
-138
-141
-143
-143
-140
-138
-140
-144
-149
-151
-149
-145
-145
-149
-152
-151
-146
-144
-147
-152
-157
-161
-161
-159
-160
-163
-166
-165
-158
-152
-152
-155
-157
-154
-148
-143
-143
-144
-146
-145
-140
-137
-140
-144
-146
-145
-142
-140
-136
-124
-104
-85
-80
-89
-107
-134
-178
-234
-283
-328
-373
-400
-386
-338
-284
-240
-200
-157
-119
-100
-102
-114
-127
-136
-139
-135
-129
-125
-126
-128
-129
-128
-123
-121
-123
-126
-128
-128
-124
-121
-123
-127
-128
-127
-123
-121
-122
-125
-129
-127
-122
-119
-120
-123
-126
-124
-119
-117
-119
-122
-123
-121
-117
-114
-115
-118
-120
-117
-112
-109
-111
-113
-114
-111
-106
-103
-104
-105
-106
-104
-99
-96
-97
-100
-102
-100
-96
-94
-95
-98
-101
-100
-97
-95
-98
-103
-107
-108
-105
-105
-107
-112
-114
-112
-109
-110
-113
-117
-120
-119
-115
-113
-115
-117
-119
-119
-115
-112
-114
-117
-120
-119
-115
-113
-116
-120
-122
-120
-115
-113
-115
-119
-121
-119
-115
-114
-117
-120
-122
-119
-114
-113
-116
-119
-120
-118
-115
-113
-115
-117
-119
-118
-115
-114
-117
-122
-124
-121
-117
-117
-120
-124
-124
-119
-114
-114
-117
-121
-126
-129
-127
-125
-128
-132
-135
-131
-125
-122
-122
-124
-125
-121
-114
-111
-111
-111
-112
-111
-107
-105
-107
-111
-112
-111
-108
-106
-101
-90
-75
-64
-65
-79
-103
-137
-181
-229
-271
-306
-330
-322
-279
-224
-181
-148
-115
-81
-54
-44
-53
-72
-90
-103
-108
-103
-96
-93
-96
-98
-99
-97
-94
-93
-95
-98
-99
-97
-92
-90
-94
-98
-100
-98
-93
-91
-93
-97
-98
-95
-91
-91
-93
-96
-96
-94
-90
-90
-93
-96
-97
-93
-89
-90
-93
-96
-97
-93
-89
-89
-91
-93
-94
-91
-86
-84
-86
-88
-89
-85
-81
-80
-83
-87
-88
-85
-80
-78
-81
-85
-87
-85
-82
-84
-88
-92
-93
-91
-89
-88
-91
-95
-97
-95
-91
-91
-95
-98
-99
-95
-90
-90
-93
-97
-98
-95
-93
-93
-96
-98
-100
-97
-94
-94
-98
-101
-101
-97
-95
-95
-98
-103
-104
-99
-96
-96
-99
-102
-103
-100
-96
-95
-98
-101
-101
-98
-94
-94
-96
-99
-100
-99
-97
-98
-102
-105
-106
-103
-100
-100
-102
-103
-101
-97
-95
-98
-103
-110
-115
-114
-110
-111
-115
-119
-117
-113
-107
-106
-106
-107
-104
-99
-94
-93
-95
-98
-99
-96
-92
-91
-93
-97
-97
-94
-88
-82
-71
-61
-58
-62
-76
-100
-138
-185
-231
-267
-296
-308
-284
-231
-176
-136
-104
-71
-38
-17
-15
-29
-49
-67
-82
-90
-89
-83
-78
-79
-82
-85
-85
-81
-78
-80
-85
-88
-86
-82
-80
-82
-86
-88
-87
-84
-80
-80
-83
-86
-86
-83
-80
-80
-82
-85
-86
-82
-79
-80
-83
-85
-85
-83
-80
-80
-83
-87
-87
-82
-80
-81
-84
-85
-84
-79
-74
-75
-80
-82
-79
-74
-72
-73
-76
-78
-78
-75
-73
-75
-78
-82
-82
-79
-78
-80
-85
-89
-90
-87
-86
-87
-91
-93
-92
-89
-87
-89
-92
-95
-94
-90
-87
-89
-91
-93
-93
-89
-86
-87
-91
-95
-95
-92
-89
-89
-92
-95
-95
-91
-89
-90
-93
-96
-96
-92
-89
-91
-95
-97
-95
-91
-90
-92
-94
-95
-95
-93
-91
-92
-95
-99
-99
-95
-93
-94
-98
-101
-100
-96
-92
-92
-95
-97
-97
-94
-94
-100
-108
-113
-111
-108
-109
-111
-111
-110
-108
-103
-100
-99
-100
-100
-97
-93
-90
-91
-94
-95
-94
-90
-89
-91
-95
-97
-95
-84
-69
-56
-53
-61
-75
-95
-127
-172
-222
-268
-303
-317
-294
-243
-191
-153
-120
-83
-44
-17
-14
-31
-53
-68
-78
-85
-88
-88
-85
-80
-78
-81
-85
-87
-86
-83
-82
-83
-87
-89
-87
-83
-81
-84
-87
-89
-87
-82
-81
-84
-87
-87
-85
-83
-82
-83
-86
-88
-85
-82
-81
-84
-86
-89
-87
-83
-82
-85
-87
-87
-84
-81
-82
-84
-86
-86
-84
-79
-75
-76
-80
-83
-83
-79
-77
-78
-81
-83
-81
-79
-78
-80
-84
-87
-86
-84
-84
-88
-93
-97
-96
-93
-92
-95
-98
-99
-98
-94
-93
-95
-99
-101
-99
-94
-92
-94
-96
-98
-96
-92
-91
-95
-99
-101
-98
-94
-93
-95
-98
-100
-98
-93
-92
-95
-99
-102
-99
-94
-92
-94
-98
-101
-99
-95
-93
-95
-98
-100
-97
-93
-93
-95
-99
-103
-102
-98
-96
-98
-102
-103
-100
-96
-95
-97
-101
-105
-107
-107
-109
-113
-118
-120
-118
-113
-110
-111
-111
-111
-108
-102
-98
-99
-101
-101
-97
-93
-93
-96
-98
-100
-98
-95
-94
-96
-96
-89
-70
-52
-48
-59
-79
-103
-137
-182
-232
-280
-318
-328
-296
-238
-186
-149
-118
-82
-44
-19
-22
-46
-70
-84
-89
-88
-86
-85
-87
-88
-87
-83
-83
-87
-90
-92
-90
-87
-86
-88
-91
-92
-90
-86
-86
-88
-90
-90
-87
-83
-83
-85
-89
-90
-87
-83
-84
-87
-89
-90
-88
-86
-85
-88
-91
-92
-89
-86
-86
-87
-90
-90
-87
-83
-83
-84
-86
-86
-83
-79
-79
-80
-83
-84
-80
-76
-77
-80
-82
-82
-80
-78
-79
-82
-86
-89
-88
-86
-89
-93
-97
-98
-95
-93
-95
-98
-101
-103
-99
-94
-95
-98
-101
-101
-98
-95
-95
-98
-101
-100
-96
-93
-95
-98
-101
-101
-98
-95
-96
-99
-100
-100
-97
-94
-95
-98
-100
-100
-97
-94
-95
-99
-102
-102
-99
-96
-96
-99
-102
-103
-101
-99
-101
-105
-109
-109
-106
-102
-101
-102
-103
-104
-104
-102
-104
-108
-115
-119
-117
-114
-116
-120
-122
-119
-114
-110
-109
-110
-110
-107
-101
-97
-97
-99
-101
-102
-98
-95
-97
-100
-102
-101
-99
-96
-91
-78
-63
-55
-57
-68
-90
-125
-173
-225
-271
-311
-332
-316
-269
-216
-171
-132
-96
-60
-34
-31
-47
-67
-83
-95
-101
-98
-91
-87
-88
-91
-94
-94
-90
-89
-91
-94
-96
-95
-91
-89
-90
-94
-96
-97
-93
-89
-90
-95
-97
-95
-92
-90
-91
-93
-96
-95
-91
-87
-89
-93
-96
-95
-92
-90
-90
-93
-95
-94
-90
-87
-87
-90
-92
-90
-86
-84
-84
-87
-88
-87
-83
-80
-80
-83
-86
-85
-80
-76
-78
-82
-84
-84
-82
-81
-84
-89
-93
-94
-91
-91
-94
-98
-101
-101
-97
-96
-98
-102
-105
-104
-100
-98
-100
-103
-106
-105
-100
-97
-98
-101
-102
-100
-97
-95
-97
-99
-102
-101
-98
-96
-97
-101
-104
-102
-97
-95
-98
-102
-104
-104
-101
-99
-100
-103
-106
-106
-101
-99
-102
-108
-110
-109
-107
-106
-109
-113
-116
-113
-109
-105
-105
-108
-112
-113
-111
-112
-116
-122
-126
-126
-124
-123
-124
-124
-124
-122
-118
-115
-114
-114
-114
-112
-108
-106
-108
-111
-112
-110
-106
-105
-107
-111
-113
-109
-94
-74
-59
-57
-67
-80
-97
-133
-188
-247
-299
-340
-360
-345
-302
-252
-208
-163
-114
-71
-51
-60
-83
-98
-102
-103
-103
-101
-100
-98
-94
-94
-96
-99
-101
-99
-97
-96
-99
-103
-104
-101
-98
-96
-98
-100
-102
-100
-96
-95
-98
-101
-103
-101
-97
-97
-100
-102
-103
-101
-100
-100
-102
-106
-108
-105
-101
-100
-102
-104
-105
-101
-96
-95
-96
-99
-100
-97
-92
-90
-92
-95
-96
-93
-88
-87
-88
-90
-92
-91
-86
-84
-88
-93
-96
-95
-93
-93
-97
-102
-107
-106
-103
-103
-107
-111
-114
-114
-112
-111
-115
-119
-122
-120
-116
-116
-118
-121
-123
-121
-118
-117
-120
-124
-125
-123
-120
-120
-121
-122
-124
-124
-122
-121
-124
-128
-128
-126
-123
-123
-125
-128
-130
-128
-124
-123
-127
-131
-132
-129
-126
-127
-131
-136
-139
-138
-136
-137
-140
-143
-145
-142
-136
-135
-140
-144
-147
-149
-150
-151
-153
-155
-157
-154
-150
-147
-147
-148
-148
-144
-138
-134
-135
-136
-136
-133
-129
-128
-130
-134
-135
-133
-129
-129
-132
-131
-117
-91
-71
-70
-84
-102
-126
-166
-219
-275
-330
-385
-417
-401
-350
-295
-251
-209
-161
-116
-95
-103
-120
-133
-140
-137
-129
-127
-130
-131
-131
-128
-125
-126
-130
-133
-132
-129
-127
-128
-130
-133
-134
-130
-127
-127
-129
-133
-134
-131
-127
-125
-128
-131
-133
-131
-127
-127
-129
-132
-132
-128
-125
-125
-128
-131
-132
-129
-125
-124
-125
-126
-127
-124
-121
-120
-121
-122
-122
-119
-115
-114
-116
-119
-119
-115
-111
-111
-113
-116
-117
-114
-112
-114
-117
-121
-123
-123
-121
-123
-128
-133
-135
-133
-131
-133
-138
-142
-143
-141
-139
-141
-145
-148
-149
-145
-142
-142
-145
-148
-148
-146
-143
-143
-145
-148
-149
-145
-142
-142
-145
-149
-150
-146
-142
-143
-147
-151
-151
-148
-145
-147
-151
-154
-154
-150
-146
-148
-151
-153
-153
-151
-149
-152
-157
-162
-163
-160
-156
-156
-159
-161
-160
-157
-156
-160
-166
-173
-175
-172
-169
-170
-173
-175
-172
-166
-161
-160
-162
-162
-158
-151
-147
-147
-151
-154
-153
-149
-146
-147
-151
-155
-155
-150
-139
-123
-105
-93
-95
-105
-119
-146
-195
-255
-308
-351
-389
-402
-377
-330
-282
-238
-194
-148
-114
-106
-117
-128
-136
-142
-144
-143
-140
-135
-131
-132
-136
-138
-136
-132
-129
-131
-133
-135
-135
-132
-130
-129
-131
-135
-134
-129
-125
-126
-129
-131
-130
-126
-123
-124
-126
-129
-129
-124
-121
-123
-128
-130
-128
-124
-120
-120
-123
-125
-124
-119
-115
-115
-118
-119
-117
-111
-108
-109
-110
-111
-110
-106
-103
-104
-106
-107
-105
-102
-98
-99
-102
-105
-105
-104
-104
-106
-110
-114
-114
-110
-110
-113
-117
-119
-119
-116
-115
-118
-121
-124
-123
-120
-118
-120
-122
-124
-124
-120
-117
-119
-122
-125
-123
-120
-118
-120
-123
-125
-123
-118
-117
-122
-126
-128
-125
-120
-118
-120
-125
-127
-126
-123
-121
-123
-126
-128
-126
-121
-119
-122
-126
-131
-130
-125
-123
-126
-129
-131
-128
-122
-119
-121
-125
-128
-128
-127
-131
-136
-139
-140
-139
-137
-134
-133
-134
-135
-131
-124
-120
-120
-121
-122
-118
-113
-111
-115
-118
-120
-117
-112
-110
-114
-116
-112
-97
-76
-65
-71
-89
-111
-140
-180
-230
-278
-318
-341
-327
-278
-224
-185
-156
-123
-82
-47
-39
-55
-80
-99
-107
-106
-102
-100
-101
-102
-100
-97
-97
-98
-101
-104
-102
-97
-96
-99
-102
-104
-102
-98
-96
-97
-100
-103
-100
-95
-93
-96
-99
-100
-98
-93
-91
-94
-98
-100
-97
-93
-92
-95
-98
-98
-96
-92
-90
-90
-92
-93
-91
-87
-86
-87
-90
-90
-88
-85
-83
-83
-84
-86
-84
-80
-79
-82
-85
-87
-84
-81
-82
-87
-91
-93
-92
-89
-89
-93
-98
-99
-96
-92
-93
-96
-98
-99
-96
-92
-92
-95
-99
-99
-97
-93
-92
-95
-99
-100
-97
-93
-93
-96
-99
-100
-97
-94
-93
-95
-99
-101
-98
-95
-95
-98
-101
-102
-98
-94
-94
-98
-101
-101
-98
-95
-95
-97
-100
-102
-100
-96
-96
-100
-104
-104
-100
-97
-97
-99
-101
-102
-100
-98
-99
-105
-111
-114
-112
-110
-111
-113
-114
-113
-107
-103
-102
-103
-103
-100
-95
-90
-90
-92
-95
-95
-91
-87
-87
-90
-93
-94
-90
-81
-67
-56
-54
-61
-73
-93
-125
-170
-220
-262
-293
-305
-287
-238
-184
-144
-110
-73
-36
-10
-6
-23
-43
-59
-72
-82
-84
-81
-76
-74
-75
-78
-81
-82
-78
-76
-77
-80
-84
-83
-79
-76
-77
-79
-82
-82
-79
-76
-76
-80
-83
-82
-78
-75
-76
-79
-82
-83
-80
-77
-77
-79
-81
-81
-78
-77
-78
-79
-81
-81
-77
-74
-74
-76
-78
-79
-76
-73
-73
-75
-77
-77
-72
-69
-69
-73
-75
-75
-72
-70
-71
-75
-79
-80
-79
-77
-79
-83
-87
-87
-84
-83
-85
-88
-90
-89
-85
-84
-84
-85
-88
-89
-86
-83
-84
-86
-88
-88
-85
-82
-83
-86
-88
-88
-85
-82
-83
-86
-89
-89
-86
-83
-84
-88
-91
-91
-88
-86
-86
-88
-90
-90
-87
-84
-85
-90
-93
-92
-89
-88
-90
-94
-97
-97
-93
-89
-89
-93
-95
-94
-91
-88
-89
-95
-102
-105
-103
-101
-103
-108
-112
-110
-103
-98
-98
-100
-101
-96
-89
-86
-87
-89
-91
-91
-88
-85
-85
-89
-92
-91
-86
-82
-79
-70
-58
-50
-50
-63
-87
-123
-170
-217
-256
-290
-309
-295
-248
-191
-143
-107
-74
-39
-11
-3
-16
-38
-59
-74
-83
-83
-76
-73
-75
-77
-79
-80
-77
-75
-77
-82
-84
-83
-79
-78
-80
-83
-85
-82
-78
-78
-81
-82
-84
-84
-80
-77
-79
-82
-85
-84
-79
-77
-78
-82
-85
-84
-80
-78
-80
-84
-86
-84
-79
-77
-78
-80
-83
-82
-77
-73
-75
-79
-82
-80
-76
-74
-76
-78
-80
-78
-75
-74
-76
-80
-84
-83
-81
-81
-84
-87
-90
-91
-88
-87
-90
-94
-97
-96
-93
-92
-93
-97
-99
-98
-93
-92
-93
-95
-96
-94
-90
-89
-92
-96
-98
-97
-93
-90
-91
-95
-99
-97
-93
-91
-93
-96
-99
-98
-94
-93
-95
-98
-100
-97
-93
-93
-96
-99
-101
-100
-96
-94
-97
-102
-105
-103
-99
-98
-99
-101
-102
-98
-94
-94
-98
-102
-106
-108
-109
-109
-112
-116
-118
-115
-109
-106
-107
-109
-108
-104
-97
-95
-97
-98
-97
-95
-92
-91
-92
-95
-98
-96
-92
-91
-91
-86
-72
-55
-46
-54
-73
-100
-136
-179
-225
-269
-308
-327
-305
-250
-193
-152
-119
-86
-50
-22
-18
-37
-61
-80
-93
-95
-89
-83
-84
-88
-91
-89
-86
-86
-87
-92
-94
-91
-86
-86
-89
-92
-93
-90
-85
-85
-88
-92
-93
-89
-85
-86
-89
-92
-93
-90
-86
-86
-89
-93
-93
-91
-88
-87
-89
-93
-95
-92
-89
-88
-91
-93
-93
-89
-85
-85
-87
-89
-90
-87
-83
-83
-85
-88
-89
-86
-82
-81
-83
-86
-88
-86
-83
-83
-88
-94
-97
-94
-91
-92
-97
-102
-104
-101
-97
-97
-100
-104
-104
-101
-98
-98
-101
-103
-104
-101
-97
-95
-98
-103
-106
-102
-97
-97
-101
-105
-106
-102
-98
-98
-100
-103
-105
-102
-99
-99
-101
-104
-105
-102
-99
-99
-102
-105
-106
-102
-98
-100
-104
-109
-110
-106
-103
-104
-106
-108
-109
-106
-101
-101
-104
-107
-108
-109
-111
-116
-120
-123
-126
-123
-118
-116
-118
-119
-117
-112
-107
-104
-105
-107
-107
-102
-98
-98
-103
-106
-107
-104
-101
-101
-104
-104
-97
-78
-60
-54
-64
-84
-107
-139
-184
-236
-287
-328
-342
-314
-259
-208
-169
-135
-97
-55
-28
-31
-53
-78
-94
-99
-98
-96
-95
-97
-97
-93
-89
-90
-95
-99
-100
-96
-93
-94
-97
-100
-101
-97
-93
-94
-97
-100
-99
-96
-93
-94
-96
-98
-98
-94
-90
-91
-94
-98
-99
-96
-93
-94
-97
-99
-98
-94
-92
-94
-98
-99
-99
-95
-91
-92
-95
-98
-97
-93
-89
-89
-92
-94
-93
-89
-87
-87
-88
-91
-93
-91
-88
-89
-94
-98
-98
-97
-96
-99
-103
-107
-108
-105
-103
-105
-109
-112
-112
-109
-107
-107
-110
-113
-113
-109
-106
-108
-111
-115
-115
-110
-106
-106
-109
-112
-113
-111
-109
-109
-112
-114
-113
-110
-108
-110
-113
-116
-115
-112
-110
-112
-114
-116
-116
-113
-111
-113
-118
-123
-124
-121
-119
-121
-126
-128
-127
-121
-118
-119
-122
-126
-126
-123
-124
-130
-137
-140
-140
-137
-137
-137
-138
-139
-137
-131
-126
-126
-128
-127
-123
-118
-115
-117
-120
-123
-122
-118
-116
-118
-121
-123
-120
-111
-95
-78
-69
-73
-85
-99
-125
-172
-231
-285
-330
-362
-369
-342
-296
-249
-205
-158
-112
-80
-74
-90
-109
-119
-124
-125
-124
-123
-122
-119
-117
-120
-125
-128
-126
-122
-119
-121
-126
-130
-129
-124
-122
-124
-126
-129
-128
-124
-121
-122
-125
-128
-127
-123
-122
-124
-128
-130
-128
-124
-122
-124
-127
-130
-129
-126
-124
-125
-128
-130
-127
-121
-118
-120
-125
-128
-126
-120
-118
-120
-122
-123
-121
-116
-113
-115
-119
-120
-118
-114
-113
-116
-121
-125
-124
-121
-123
-127
-131
-134
-133
-131
-131
-135
-139
-142
-142
-140
-139
-141
-146
-150
-149
-146
-145
-147
-151
-153
-151
-148
-147
-148
-152
-154
-152
-148
-147
-150
-155
-157
-154
-151
-150
-152
-156
-158
-156
-154
-153
-155
-158
-161
-160
-157
-156
-158
-161
-165
-164
-161
-161
-165
-170
-173
-172
-169
-169
-171
-173
-173
-170
-167
-166
-171
-178
-184
-184
-182
-182
-185
-188
-189
-185
-179
-178
-180
-180
-179
-174
-167
-164
-166
-169
-169
-168
-167
-168
-169
-171
-173
-171
-167
-164
-156
-139
-120
-110
-116
-131
-154
-192
-246
-301
-350
-401
-442
-445
-405
-348
-298
-256
-212
-169
-144
-142
-152
-163
-172
-177
-175
-169
-163
-162
-165
-170
-172
-168
-164
-164
-166
-170
-172
-170
-165
-163
-166
-170
-172
-169
-165
-166
-169
-171
-172
-170
-167
-167
-169
-172
-173
-170
-168
-168
-168
-170
-172
-172
-169
-168
-171
-173
-173
-170
-167
-166
-168
-170
-170
-166
-161
-162
-165
-167
-167
-164
-160
-159
-161
-164
-164
-161
-158
-158
-160
-163
-166
-164
-161
-162
-166
-169
-171
-170
-169
-172
-176
-179
-180
-180
-179
-180
-184
-188
-190
-189
-187
-189
-192
-195
-196
-192
-189
-191
-194
-197
-197
-195
-192
-192
-196
-201
-201
-197
-192
-194
-198
-201
-202
-199
-196
-196
-199
-202
-202
-199
-195
-195
-199
-203
-205
-201
-198
-200
-205
-210
-212
-210
-207
-208
-212
-214
-214
-210
-207
-208
-211
-216
-219
-219
-220
-223
-228
-231
-231
-226
-222
-221
-222
-223
-220
-214
-208
-207
-208
-209
-209
-206
-202
-202
-204
-206
-206
-203
-200
-200
-203
-201
-184
-158
-141
-143
-160
-180
-207
-249
-303
-357
-407
-451
-466
-436
-383
-335
-298
-260
-215
-173
-158
-169
-187
-199
-203
-197
-189
-187
-190
-193
-192
-188
-186
-187
-189
-191
-192
-188
-184
-184
-188
-192
-191
-186
-183
-184
-186
-187
-187
-184
-182
-182
-184
-186
-184
-179
-177
-178
-180
-180
-180
-177
-175
-176
-178
-180
-179
-174
-171
-171
-174
-175
-172
-168
-166
-165
-167
-169
-166
-160
-158
-158
-160
-162
-162
-159
-155
-155
-157
-161
-162
-159
-157
-158
-162
-166
-167
-164
-163
-166
-169
-172
-172
-169
-168
-170
-173
-176
-177
-174
-173
-174
-177
-179
-178
-174
-172
-174
-178
-180
-179
-175
-173
-173
-176
-179
-178
-175
-174
-175
-177
-179
-179
-175
-173
-175
-179
-180
-178
-174
-172
-174
-177
-178
-177
-175
-173
-173
-176
-180
-179
-176
-176
-179
-182
-184
-182
-179
-177
-178
-178
-179
-179
-177
-176
-180
-187
-192
-191
-188
-187
-188
-188
-187
-184
-180
-177
-177
-177
-176
-172
-167
-164
-164
-168
-170
-168
-164
-162
-163
-166
-169
-167
-157
-140
-125
-119
-125
-138
-156
-185
-230
-283
-330
-366
-385
-373
-329
-279
-243
-210
-171
-130
-101
-95
-110
-129
-141
-149
-154
-154
-151
-146
-142
-140
-142
-144
-145
-143
-141
-142
-144
-146
-148
-146
-142
-141
-142
-144
-146
-143
-139
-137
-139
-142
-144
-141
-136
-135
-137
-141
-143
-140
-136
-134
-136
-139
-141
-139
-134
-132
-134
-137
-138
-137
-133
-131
-132
-134
-134
-131
-126
-123
-125
-128
-130
-128
-123
-121
-122
-126
-129
-127
-125
-125
-127
-130
-132
-131
-129
-130
-132
-135
-137
-136
-133
-133
-135
-138
-140
-139
-136
-135
-136
-140
-141
-139
-136
-135
-136
-139
-141
-139
-136
-136
-138
-141
-143
-141
-137
-135
-137
-141
-143
-142
-139
-138
-140
-142
-143
-141
-137
-136
-137
-141
-143
-141
-138
-137
-139
-142
-143
-141
-139
-140
-143
-146
-148
-146
-143
-142
-144
-146
-145
-142
-139
-140
-145
-153
-157
-155
-152
-152
-155
-156
-155
-152
-148
-146
-146
-147
-145
-139
-133
-133
-137
-138
-137
-135
-131
-129
-130
-134
-135
-132
-125
-115
-103
-94
-95
-103
-120
-148
-189
-238
-283
-318
-341
-342
-308
-253
-203
-166
-132
-96
-62
-47
-53
-71
-89
-105
-118
-125
-124
-118
-115
-115
-118
-120
-122
-120
-116
-115
-119
-124
-124
-120
-116
-116
-118
-122
-123
-119
-116
-116
-118
-119
-120
-117
-113
-113
-116
-120
-120
-116
-112
-113
-116
-118
-119
-116
-112
-111
-114
-117
-116
-114
-111
-112
-113
-116
-116
-112
-108
-108
-110
-111
-112
-109
-105
-105
-107
-110
-111
-108
-105
-106
-110
-114
-115
-113
-112
-113
-118
-123
-124
-122
-119
-119
-122
-125
-127
-124
-120
-120
-122
-125
-125
-121
-118
-118
-120
-122
-123
-120
-117
-117
-121
-124
-124
-122
-119
-120
-121
-123
-122
-119
-120
-122
-124
-126
-127
-123
-120
-121
-124
-127
-127
-123
-120
-121
-124
-127
-128
-126
-124
-126
-129
-132
-131
-128
-125
-124
-125
-128
-128
-126
-125
-131
-138
-143
-144
-140
-138
-140
-143
-144
-142
-136
-131
-131
-132
-131
-128
-123
-119
-120
-123
-125
-125
-121
-117
-118
-121
-125
-124
-118
-108
-94
-83
-83
-92
-106
-130
-168
-218
-267
-308
-337
-342
-313
-260
-208
-167
-131
-94
-59
-38
-41
-61
-79
-93
-105
-115
-117
-113
-109
-107
-107
-109
-114
-115
-112
-109
-111
-115
-117
-116
-114
-112
-113
-116
-118
-116
-111
-110
-112
-114
-117
-116
-111
-108
-110
-112
-114
-114
-111
-109
-109
-112
-114
-113
-110
-110
-111
-113
-115
-114
-111
-107
-108
-111
-113
-112
-108
-106
-108
-111
-112
-110
-106
-104
-105
-108
-110
-108
-105
-104
-107
-110
-113
-113
-112
-113
-115
-119
-122
-122
-118
-116
-118
-122
-124
-123
-118
-117
-120
-123
-124
-122
-118
-115
-117
-120
-121
-120
-116
-114
-115
-119
-122
-120
-116
-114
-116
-119
-121
-120
-117
-115
-116
-120
-122
-121
-117
-116
-118
-121
-122
-121
-118
-116
-117
-120
-123
-123
-121
-121
-123
-126
-128
-126
-122
-119
-119
-122
-124
-123
-121
-123
-129
-134
-136
-135
-133
-132
-132
-133
-134
-132
-127
-123
-122
-123
-122
-119
-115
-112
-114
-118
-120
-117
-112
-111
-114
-118
-119
-116
-104
-89
-76
-73
-80
-94
-115
-150
-199
-251
-298
-333
-344
-320
-269
-218
-177
-139
-99
-60
-36
-38
-58
-80
-93
-103
-109
-111
-110
-106
-103
-102
-103
-105
-108
-106
-103
-104
-106
-109
-110
-108
-103
-102
-105
-108
-109
-108
-105
-103
-105
-108
-108
-106
-103
-103
-104
-106
-108
-106
-103
-103
-103
-105
-106
-105
-102
-102
-105
-108
-109
-106
-102
-101
-103
-105
-105
-102
-100
-101
-102
-104
-105
-103
-100
-98
-98
-101
-103
-101
-96
-96
-99
-102
-104
-103
-102
-103
-106
-111
-113
-111
-109
-109
-113
-117
-119
-117
-114
-113
-116
-118
-118
-116
-112
-111
-113
-115
-116
-113
-110
-110
-113
-116
-117
-114
-110
-110
-113
-116
-116
-113
-110
-111
-113
-115
-116
-114
-112
-111
-113
-116
-117
-114
-111
-112
-116
-120
-121
-119
-118
-119
-121
-124
-125
-121
-115
-114
-116
-119
-120
-120
-121
-125
-131
-134
-136
-134
-132
-129
-128
-129
-129
-124
-118
-117
-117
-117
-116
-112
-109
-110
-112
-115
-116
-113
-110
-110
-112
-114
-113
-104
-87
-70
-64
-72
-88
-106
-135
-180
-233
-286
-329
-346
-323
-275
-225
-183
-145
-103
-62
-36
-36
-58
-81
-93
-98
-100
-101
-101
-100
-96
-92
-93
-96
-100
-101
-99
-96
-97
-99
-102
-103
-100
-96
-96
-99
-102
-102
-98
-94
-94
-96
-98
-98
-95
-92
-91
-94
-96
-97
-94
-92
-92
-94
-96
-97
-95
-92
-92
-94
-96
-96
-93
-89
-88
-91
-92
-91
-87
-86
-87
-89
-91
-91
-87
-85
-85
-88
-90
-90
-87
-84
-85
-89
-92
-94
-91
-90
-92
-97
-100
-101
-99
-96
-97
-101
-105
-106
-102
-100
-101
-104
-106
-105
-102
-99
-99
-101
-104
-103
-99
-97
-98
-101
-103
-104
-101
-98
-99
-102
-105
-105
-101
-98
-100
-103
-105
-104
-101
-99
-100
-104
-107
-106
-103
-101
-103
-107
-111
-111
-108
-106
-107
-111
-115
-114
-109
-105
-106
-110
-113
-114
-113
-115
-120
-124
-127
-127
-125
-122
-122
-123
-124
-121
-116
-112
-111
-111
-111
-110
-105
-102
-103
-106
-108
-107
-105
-104
-106
-109
-111
-106
-90
-69
-54
-54
-66
-83
-105
-143
-199
-257
-307
-345
-355
-328
-279
-232
-191
-148
-102
-64
-48
-58
-81
-98
-102
-102
-101
-99
-100
-99
-95
-92
-93
-97
-101
-101
-96
-94
-97
-100
-101
-100
-96
-94
-95
-99
-101
-100
-96
-95
-97
-100
-102
-101
-98
-96
-98
-102
-104
-102
-98
-98
-101
-102
-104
-103
-100
-96
-97
-100
-103
-100
-96
-95
-96
-98
-100
-97
-92
-91
-94
-96
-97
-95
-91
-89
-90
-94
-96
-94
-90
-88
-91
-94
-96
-96
-95
-95
-97
-100
-102
-103
-100
-101
-104
-106
-108
-109
-108
-107
-108
-111
-114
-114
-110
-109
-111
-115
-117
-115
-112
-112
-114
-117
-120
-119
-115
-115
-118
-122
-124
-123
-120
-118
-121
-124
-125
-123
-120
-120
-122
-126
-128
-126
-122
-121
-124
-128
-129
-128
-127
-128
-132
-136
-139
-138
-134
-132
-133
-135
-135
-134
-133
-135
-141
-148
-152
-152
-148
-147
-149
-153
-154
-148
-140
-136
-137
-139
-139
-136
-132
-129
-129
-132
-135
-132
-128
-126
-129
-133
-134
-132
-125
-113
-94
-78
-74
-81
-92
-114
-155
-212
-270
-320
-370
-406
-401
-359
-308
-260
-212
-161
-118
-99
-104
-115
-123
-130
-134
-133
-130
-128
-126
-125
-127
-131
-133
-131
-127
-125
-127
-129
-130
-129
-125
-125
-128
-131
-131
-128
-126
-125
-128
-131
-131
-128
-126
-126
-127
-129
-130
-129
-126
-126
-128
-131
-132
-130
-126
-125
-126
-128
-128
-125
-122
-121
-122
-124
-124
-120
-116
-115
-117
-119
-120
-117
-113
-112
-114
-117
-118
-114
-110
-111
-115
-118
-119
-118
-115
-117
-122
-127
-129
-127
-124
-126
-131
-136
-138
-137
-134
-135
-139
-143
-144
-142
-139
-139
-141
-145
-147
-145
-142
-143
-146
-148
-149
-146
-144
-144
-147
-151
-153
-150
-147
-148
-151
-154
-155
-152
-150
-150
-153
-156
-157
-153
-150
-151
-155
-158
-158
-154
-152
-154
-159
-163
-164
-162
-160
-160
-163
-166
-166
-161
-158
-160
-164
-169
-172
-173
-174
-175
-177
-180
-179
-175
-170
-168
-168
-169
-167
-161
-155
-154
-155
-156
-157
-154
-150
-150
-153
-155
-154
-150
-149
-151
-147
-131
-107
-89
-88
-103
-124
-153
-198
-254
-306
-357
-403
-422
-396
-341
-288
-248
-209
-166
-126
-108
-114
-130
-142
-149
-147
-139
-132
-132
-134
-136
-135
-131
-128
-127
-130
-133
-133
-129
-125
-126
-128
-131
-131
-128
-124
-124
-127
-128
-128
-125
-123
-123
-126
-127
-126
-123
-121
-122
-124
-125
-125
-122
-119
-118
-121
-123
-121
-116
-113
-113
-115
-117
-115
-109
-104
-104
-106
-108
-106
-101
-97
-98
-101
-102
-100
-96
-93
-94
-96
-97
-97
-95
-94
-96
-101
-104
-104
-102
-103
-106
-109
-111
-112
-109
-108
-110
-115
-118
-118
-114
-113
-114
-117
-119
-118
-115
-113
-114
-116
-118
-118
-115
-113
-114
-117
-119
-116
-113
-112
-115
-118
-119
-118
-114
-111
-113
-117
-119
-118
-114
-114
-115
-117
-119
-118
-114
-110
-111
-116
-120
-120
-116
-115
-117
-121
-123
-121
-117
-115
-115
-117
-119
-119
-117
-115
-119
-127
-132
-130
-125
-125
-128
-129
-128
-125
-120
-116
-116
-116
-115
-112
-106
-102
-102
-105
-107
-106
-102
-99
-100
-104
-106
-104
-95
-78
-61
-53
-59
-73
-89
-115
-161
-217
-268
-308
-331
-323
-281
-230
-191
-156
-117
-75
-42
-32
-45
-65
-78
-87
-92
-92
-88
-85
-82
-79
-80
-83
-85
-84
-79
-77
-78
-81
-83
-81
-78
-76
-77
-80
-80
-77
-73
-73
-76
-78
-78
-75
-70
-69
-72
-76
-77
-74
-71
-70
-71
-73
-74
-72
-69
-67
-68
-70
-71
-69
-65
-64
-65
-66
-67
-65
-61
-59
-59
-61
-62
-59
-55
-54
-56
-58
-59
-57
-54
-53
-56
-60
-63
-62
-61
-63
-66
-70
-72
-72
-68
-66
-68
-71
-74
-73
-69
-67
-69
-72
-74
-72
-69
-67
-69
-72
-75
-73
-69
-68
-70
-73
-75
-74
-70
-69
-72
-76
-77
-74
-69
-67
-69
-72
-74
-72
-68
-67
-70
-73
-74
-71
-67
-67
-68
-71
-73
-70
-66
-67
-71
-76
-78
-76
-74
-73
-74
-76
-76
-73
-69
-67
-70
-75
-79
-81
-81
-82
-84
-87
-89
-87
-82
-78
-78
-80
-80
-76
-69
-64
-64
-67
-68
-65
-61
-60
-62
-64
-65
-62
-59
-59
-57
-51
-38
-23
-18
-27
-48
-77
-114
-157
-200
-243
-278
-288
-256
-194
-137
-100
-72
-40
-4
23
25
6
-20
-40
-51
-53
-49
-45
-45
-48
-50
-46
-41
-42
-46
-49
-49
-46
-43
-44
-47
-50
-49
-46
-43
-43
-44
-46
-48
-46
-42
-41
-44
-48
-49
-45
-41
-40
-44
-47
-47
-42
-39
-39
-41
-42
-43
-42
-40
-38
-40
-43
-44
-39
-35
-35
-37
-39
-38
-34
-31
-32
-34
-36
-37
-34
-30
-30
-33
-36
-37
-35
-33
-35
-38
-41
-44
-42
-40
-42
-45
-47
-47
-44
-41
-43
-47
-50
-49
-45
-41
-41
-44
-46
-45
-42
-39
-39
-41
-45
-46
-43
-40
-41
-42
-44
-44
-41
-38
-40
-44
-46
-47
-44
-40
-40
-43
-45
-45
-42
-39
-39
-43
-46
-45
-41
-38
-40
-43
-47
-47
-43
-41
-41
-44
-48
-48
-44
-40
-39
-40
-42
-43
-41
-40
-45
-52
-56
-56
-54
-52
-52
-54
-55
-53
-46
-42
-41
-42
-42
-40
-36
-32
-33
-37
-39
-38
-35
-33
-34
-36
-38
-36
-26
-11
2
6
-3
-18
-36
-65
-108
-158
-206
-245
-262
-244
-194
-139
-98
-65
-27
12
43
50
33
10
-6
-16
-24
-28
-27
-24
-20
-19
-20
-23
-26
-27
-24
-22
-23
-26
-27
-27
-23
-21
-22
-26
-29
-28
-22
-19
-21
-24
-26
-24
-21
-19
-20
-22
-25
-24
-20
-19
-21
-22
-23
-22
-19
-17
-17
-19
-22
-22
-18
-14
-14
-17
-19
-18
-15
-14
-14
-16
-17
-16
-12
-9
-9
-11
-14
-15
-12
-11
-11
-13
-18
-19
-17
-16
-18
-23
-27
-26
-23
-22
-23
-26
-29
-28
-25
-23
-25
-27
-29
-28
-23
-20
-22
-26
-28
-27
-23
-21
-22
-25
-27
-26
-22
-20
-22
-26
-29
-28
-23
-22
-24
-27
-29
-26
-22
-21
-24
-27
-28
-27
-24
-21
-22
-26
-28
-27
-23
-23
-25
-28
-31
-31
-29
-27
-28
-32
-33
-30
-25
-25
-28
-31
-35
-37
-37
-37
-39
-45
-49
-47
-41
-36
-36
-38
-40
-35
-26
-22
-22
-25
-25
-24
-21
-20
-21
-23
-24
-23
-20
-19
-20
-17
-4
14
25
21
4
-20
-54
-97
-145
-193
-236
-260
-243
-189
-130
-85
-51
-18
16
47
56
40
15
-4
-16
-20
-15
-9
-9
-12
-13
-12
-9
-8
-10
-14
-16
-13
-8
-7
-9
-13
-15
-13
-9
-7
-9
-13
-14
-11
-7
-7
-9
-11
-12
-10
-6
-5
-8
-11
-13
-10
-5
-4
-7
-12
-13
-9
-5
-5
-7
-8
-9
-7
-4
-3
-5
-6
-6
-3
1
3
1
-3
-4
-1
3
3
1
-2
-2
0
1
1
-2
-6
-9
-7
-6
-6
-8
-11
-14
-14
-11
-11
-14
-17
-19
-18
-14
-12
-13
-16
-17
-15
-10
-9
-11
-13
-14
-12
-9
-9
-12
-15
-16
-14
-11
-10
-13
-17
-18
-16
-13
-12
-14
-18
-20
-18
-14
-13
-16
-19
-21
-19
-15
-14
-17
-21
-22
-20
-18
-20
-23
-26
-26
-24
-21
-21
-22
-24
-24
-22
-20
-22
-28
-35
-39
-38
-36
-36
-39
-40
-38
-33
-29
-29
-29
-29
-27
-23
-18
-16
-18
-19
-20
-17
-14
-14
-17
-20
-21
-19
-15
-8
4
19
28
27
14
-7
-39
-87
-141
-190
-232
-257
-246
-202
-148
-99
-57
-19
16
41
45
31
11
-5
-15
-21
-19
-12
-7
-7
-11
-15
-16
-13
-9
-10
-12
-15
-15
-13
-11
-11
-13
-15
-16
-13
-9
-8
-11
-14
-14
-11
-8
-9
-12
-14
-14
-9
-6
-9
-13
-15
-15
-12
-11
-11
-13
-16
-16
-12
-9
-10
-12
-14
-14
-10
-6
-6
-8
-11
-11
-8
-4
-3
-4
-7
-7
-4
0
0
-4
-7
-7
-4
-2
