23
25
22
20
17
15
12
9
7
5
1
-5
-10
-15
-22
-29
-36
-42
-49
-57
-63
-68
-72
-76
-81
-87
-97
-109
-121
-131
-137
-138
-136
-129
-118
-105
-93
-81
-68
-55
-43
-32
-21
-12
-6
-5
-8
-12
-17
-21
-24
-27
-29
-30
-29
-27
-24
-20
-14
-7
-1
5
9
13
15
16
17
19
21
22
22
23
24
25
27
29
31
32
34
35
36
37
39
41
43
45
47
48
49
50
52
53
54
56
57
58
60
62
63
64
65
66
67
67
68
69
70
70
71
71
72
72
71
70
69
67
65
64
62
61
59
57
55
53
52
51
49
48
46
44
43
41
39
37
36
35
34
32
32
31
30
29
27
26
24
22
21
20
20
20
20
21
21
21
21
21
20
20
18
18
17
17
17
17
17
18
18
18
19
19
19
19
19
19
18
18
17
17
16
16
15
15
14
14
15
15
16
16
16
15
15
14
14
14
14
14
14
15
15
14
14
15
14
13
14
14
14
16
16
10
4
6
10
10
12
20
27
27
23
20
18
16
13
10
7
3
-2
-8
-13
-19
-26
-33
-39
-45
-53
-61
-68
-73
-78
-84
-92
-101
-113
-126
-138
-147
-152
-151
-145
-135
-122
-109
-95
-82
-69
-56
-43
-31
-21
-13
-10
-10
-14
-18
-22
-25
-28
-29
-28
-28
-27
-24
-19
-13
-6
2
9
14
18
21
22
22
23
24
24
23
23
24
26
28
29
31
31
32
33
34
36
38
40
42
44
46
47
48
49
50
52
55
57
60
61
63
65
66
68
71
73
75
77
78
80
81
81
81
81
81
82
81
81
80
78
76
75
73
72
70
68
66
64
63
61
58
56
54
52
50
48
46
43
41
39
37
35
34
32
30
29
28
27
26
24
23
23
22
20
19
19
18
18
17
18
18
17
17
18
18
19
19
19
19
20
19
19
20
20
19
19
20
19
19
19
19
18
18
19
19
18
18
18
18
17
17
17
16
15
15
15
15
15
15
15
14
13
13
13
13
13
13
13
13
14
13
12
14
10
-1
-7
-2
2
3
11
24
28
25
21
18
15
13
11
8
4
-1
-6
-12
-19
-25
-30
-36
-42
-49
-57
-66
-75
-82
-88
-97
-107
-118
-131
-145
-157
-164
-166
-164
-158
-147
-135
-123
-110
-97
-84
-72
-59
-47
-37
-29
-25
-25
-28
-32
-35
-38
-39
-38
-36
-34
-31
-26
-20
-14
-7
1
8
13
18
21
22
24
26
28
29
30
32
33
34
36
38
39
40
42
43
44
45
47
48
49
51
52
54
54
54
56
59
61
63
65
67
69
71
72
74
76
77
78
80
81
82
81
81
81
80
79
79
79
78
78
79
78
78
77
75
73
70
68
66
64
62
60
59
57
54
52
51
49
47
46
44
43
42
41
39
38
37
35
34
33
32
30
29
28
27
26
25
24
23
22
21
20
20
20
19
18
18
18
18
18
19
19
18
18
18
17
17
16
15
15
16
16
17
18
17
17
17
17
17
17
17
17
17
18
19
20
20
21
21
21
22
21
21
20
20
20
20
20
20
19
19
18
19
20
14
5
5
10
12
15
25
34
35
32
28
24
21
18
16
13
10
6
0
-5
-10
-16
-22
-28
-34
-41
-48
-55
-60
-64
-70
-78
-88
-101
-114
-127
-137
-142
-141
-136
-126
-113
-99
-87
-73
-60
-48
-37
-26
-16
-7
0
3
2
0
-2
-7
-11
-15
-18
-21
-20
-17
-13
-6
2
9
14
18
20
22
22
24
25
26
26
27
27
27
27
28
28
29
30
31
33
34
36
38
40
42
43
45
46
47
49
51
52
53
55
57
58
59
62
64
65
66
68
70
71
73
75
75
76
76
76
75
75
74
73
72
71
69
68
67
66
66
64
63
61
59
58
56
54
53
53
51
49
47
45
43
41
39
37
35
33
32
31
30
30
29
27
26
25
24
24
24
22
21
21
21
20
18
18
18
18
18
19
19
19
19
19
20
20
20
19
19
19
18
18
18
17
17
17
18
17
17
17
17
17
17
16
16
16
16
16
16
16
16
16
15
15
14
14
13
13
13
13
13
13
14
15
14
14
15
14
6
1
5
10
12
16
25
31
30
27
24
22
20
18
16
13
10
5
1
-3
-8
-14
-19
-25
-32
-40
-48
-55
-59
-63
-68
-75
-84
-97
-110
-120
-128
-130
-128
-122
-113
-100
-88
-76
-64
-52
-41
-30
-20
-11
-5
-2
-3
-8
-13
-18
-23
-26
-29
-30
-28
-27
-24
-20
-13
-6
1
7
12
16
18
19
20
22
24
25
26
26
26
27
28
29
31
32
33
34
34
34
34
36
37
39
42
44
47
50
53
56
58
60
61
63
64
65
66
67
69
69
70
71
72
71
71
72
72
71
72
73
73
72
71
71
69
68
66
65
64
63
62
62
61
59
58
57
54
52
50
48
46
44
43
42
41
40
39
37
36
34
33
31
30
30
29
28
26
25
24
22
21
20
18
17
17
17
16
16
15
16
16
16
16
16
16
17
18
18
18
18
18
18
17
17
17
18
18
17
18
17
16
16
16
15
16
17
17
17
17
17
16
17
17
17
17
17
16
16
15
16
15
14
14
15
14
15
15
10
3
2
7
10
13
20
28
30
27
24
21
18
15
12
8
4
0
-5
-11
-16
-20
-25
-31
-38
-45
-53
-59
-64
-68
-71
-76
-83
-92
-104
-114
-123
-127
-127
-122
-113
-102
-90
-77
-65
-52
-40
-29
-19
-9
-2
3
4
1
-3
-8
-12
-16
-19
-21
-23
-25
-25
-22
-18
-12
-5
2
7
11
15
16
16
16
17
18
19
21
22
24
25
27
28
30
31
32
33
34
35
36
38
40
42
44
46
47
49
52
54
55
57
58
59
60
61
61
62
63
63
64
66
67
68
69
70
71
71
71
71
71
71
70
69
67
66
63
61
59
57
55
53
51
50
48
47
46
45
43
41
40
39
39
38
36
35
34
32
30
28
27
26
25
24
23
22
21
20
19
18
18
19
19
18
18
19
18
17
17
17
16
15
13
12
11
11
12
12
13
13
13
12
11
11
11
11
11
11
11
12
12
11
11
11
11
10
10
10
9
8
8
8
9
9
9
9
8
7
7
7
8
9
10
10
10
12
12
7
4
6
10
12
16
23
27
25
22
20
18
15
12
8
4
0
-6
-12
-18
-24
-30
-35
-41
-47
-54
-60
-64
-67
-70
-74
-79
-86
-96
-106
-114
-119
-120
-117
-110
-100
-89
-79
-68
-55
-43
-32
-21
-12
-4
3
5
3
0
-5
-9
-13
-17
-20
-22
-22
-22
-21
-16
-11
-5
0
7
11
14
16
18
19
20
21
21
22
22
23
24
25
26
28
30
31
32
33
34
36
37
38
39
40
42
44
46
48
49
50
51
52
52
54
55
56
57
58
60
60
61
62
62
63
63
64
64
64
63
62
61
60
59
59
58
57
56
55
54
52
51
50
48
47
47
46
46
44
42
41
39
37
35
33
32
30
28
26
25
24
22
21
20
19
18
16
15
15
15
15
15
16
16
16
15
14
12
11
11
11
12
12
12
12
12
13
13
14
14
15
15
15
15
16
17
18
18
18
18
17
16
15
13
12
11
10
10
11
11
10
11
12
12
12
13
13
13
13
13
13
13
13
13
13
13
12
9
3
2
6
9
10
14
20
22
20
17
14
13
11
8
6
3
-2
-7
-13
-19
-26
-34
-42
-49
-56
-62
-67
-70
-72
-74
-78
-85
-93
-103
-114
-122
-126
-124
-119
-110
-98
-86
-75
-64
-52
-41
-31
-21
-11
-2
3
4
2
-4
-9
-15
-19
-22
-24
-25
-25
-23
-19
-15
-9
-2
4
9
13
15
17
18
19
20
21
23
23
24
24
25
26
27
30
31
33
34
35
36
37
38
38
40
42
45
47
48
51
52
54
55
56
58
60
62
64
65
67
68
69
69
69
69
71
71
72
71
72
72
71
70
69
67
66
66
64
63
62
59
58
56
54
53
52
50
49
47
45
43
40
38
37
36
35
34
34
34
33
32
30
29
27
26
24
23
21
21
20
19
19
18
17
16
15
14
14
14
14
14
15
16
16
17
18
17
17
17
18
17
15
15
15
14
15
15
14
14
14
15
14
14
13
13
13
14
15
16
16
16
15
15
14
14
14
14
15
15
16
16
16
15
17
17
17
18
19
14
8
9
14
15
17
24
30
30
28
26
23
20
18
15
11
8
3
-2
-8
-14
-20
-27
-34
-41
-49
-57
-64
-67
-71
-75
-80
-86
-96
-106
-117
-125
-129
-129
-124
-114
-102
-90
-78
-65
-53
-40
-28
-18
-8
-1
3
3
-1
-6
-10
-14
-17
-20
-22
-22
-22
-20
-16
-11
-5
2
8
13
17
19
20
22
23
24
26
27
29
30
31
32
33
36
38
39
40
42
43
44
44
44
45
46
49
50
51
53
55
58
60
63
66
68
69
71
73
74
75
76
77
77
77
78
78
77
77
77
77
76
76
76
76
75
75
75
74
73
72
70
68
66
64
62
61
58
56
54
53
51
49
47
46
45
43
42
41
39
38
37
36
34
33
31
30
28
27
26
24
23
23
23
23
22
22
22
22
22
22
22
23
24
24
24
25
25
24
24
23
24
24
24
23
23
24
24
24
24
23
23
23
23
24
24
24
24
23
22
21
21
20
20
21
20
20
21
21
20
21
21
21
20
21
20
20
21
20
12
8
11
15
16
21
29
34
33
30
28
25
23
21
19
16
13
8
3
-3
-9
-15
-22
-28
-35
-43
-50
-56
-62
-66
-71
-78
-87
-98
-109
-120
-126
-127
-124
-118
-108
-96
-84
-73
-61
-48
-37
-25
-15
-6
1
4
3
-2
-6
-10
-14
-17
-18
-19
-19
-17
-14
-10
-4
4
11
17
21
24
26
26
27
28
30
32
34
35
36
37
38
39
40
42
43
45
47
48
50
51
52
53
54
56
59
60
61
63
64
66
67
69
71
72
74
76
77
78
79
79
79
80
80
80
81
82
82
82
81
81
80
79
78
76
75
75
74
71
69
67
65
62
61
60
58
57
56
55
53
52
50
49
48
47
45
44
43
42
41
39
38
37
35
34
33
32
31
30
29
28
28
27
27
27
27
27
27
26
26
27
27
27
26
26
26
26
25
24
24
24
25
26
26
26
26
27
27
27
27
27
27
26
26
26
26
27
26
26
26
26
26
25
26
26
26
26
27
27
27
26
27
27
26
26
27
22
14
13
17
20
23
30
38
40
37
33
30
26
21
15
9
3
-4
-14
-24
-31
-34
-32
-22
-4
21
49
79
105
123
134
139
137
131
122
109
91
72
52
34
19
10
7
7
7
7
6
7
7
6
7
8
9
9
9
8
7
7
6
5
3
4
4
4
5
4
3
2
2
2
2
1
1
2
2
1
1
0
-1
-3
-4
-4
-4
-4
-4
-4
-5
-6
-6
-7
-8
-9
-9
-9
-9
-8
-8
-8
-9
-9
-10
-10
-10
-11
-10
-9
-8
-6
-5
-3
0
2
4
7
9
10
12
14
16
18
20
21
22
22
23
22
22
22
21
20
19
18
18
17
17
17
17
16
16
15
15
15
14
14
14
13
12
11
11
11
11
10
10
10
10
10
11
12
13
13
14
14
15
17
18
18
18
19
19
20
20
20
21
21
20
21
21
22
22
23
24
24
24
24
24
24
24
25
24
24
24
24
24
23
23
23
22
22
21
22
23
23
23
23
23
23
23
23
23
22
21
21
21
20
21
21
16
10
12
16
17
21
29
36
37
34
31
29
28
26
23
21
17
12
6
0
-5
-11
-17
-23
-28
-34
-40
-46
-50
-55
-61
-68
-77
-88
-99
-110
-118
-122
-122
-118
-110
-100
-88
-76
-64
-51
-39
-28
-17
-6
2
6
6
2
-3
-9
-13
-17
-20
-21
-20
-18
-15
-10
-4
2
9
15
20
24
27
29
31
32
34
36
37
38
39
41
43
45
46
47
48
49
50
52
53
54
54
56
57
58
60
62
64
67
69
72
73
74
76
78
80
81
83
84
84
85
86
87
88
89
89
89
89
89
89
89
89
89
88
88
88
87
87
86
85
84
83
81
78
76
73
71
69
67
66
65
64
62
61
60
58
55
52
50
50
49
48
46
44
42
40
38
35
35
34
33
31
31
30
30
29
29
28
27
27
27
28
28
29
29
28
28
27
27
26
26
26
26
25
26
26
26
26
26
27
28
28
29
29
29
30
31
31
31
31
31
30
28
28
28
28
27
27
28
27
25
24
24
24
24
26
23
15
11
15
19
20
27
38
42
40
37
34
30
27
24
21
17
12
7
2
-4
-10
-16
-22
-28
-36
-43
-49
-54
-59
-65
-72
-81
-93
-105
-118
-129
-135
-136
-133
-126
-114
-101
-88
-75
-62
-50
-39
-28
-17
-8
0
5
4
0
-4
-9
-14
-17
-20
-21
-21
-19
-15
-10
-3
4
12
18
23
26
29
30
29
30
32
34
35
36
37
38
38
37
38
39
40
41
42
44
46
48
49
50
51
52
53
55
56
58
61
64
66
69
72
74
75
77
77
77
78
80
81
81
82
83
84
83
83
84
84
83
83
82
81
80
79
78
77
75
73
70
68
66
64
62
59
57
55
53
50
48
47
46
44
42
41
40
39
37
36
35
34
32
31
29
28
27
25
24
22
23
23
22
21
21
22
22
23
23
24
24
24
25
25
26
27
28
27
26
26
24
23
22
23
23
22
22
23
24
24
23
23
24
25
24
24
24
24
24
24
24
23
21
20
19
19
18
19
19
20
20
20
20
19
21
21
15
6
7
13
14
17
26
35
36
33
31
28
25
22
19
16
12
8
4
-1
-5
-10
-15
-20
-26
-34
-42
-49
-55
-61
-68
-76
-85
-97
-111
-124
-134
-139
-140
-136
-127
-115
-102
-91
-79
-67
-55
-43
-32
-22
-13
-7
-4
-7
-10
-15
-19
-23
-26
-27
-27
-25
-22
-17
-11
-4
4
11
16
20
24
26
26
27
28
29
31
32
33
35
37
39
39
40
41
42
44
46
47
49
50
52
54
55
57
58
59
61
64
67
68
70
71
72
73
74
77
78
79
80
81
82
83
83
83
83
83
83
83
82
82
83
82
82
81
79
77
75
72
70
68
66
65
63
61
60
58
55
53
51
50
49
47
46
45
44
43
41
40
38
37
35
34
33
32
31
31
30
29
28
26
24
23
23
23
22
22
22
23
24
24
25
25
24
24
24
24
23
23
23
23
23
23
24
23
22
22
22
22
22
23
23
23
23
23
22
23
23
22
23
23
22
22
21
20
20
21
21
20
20
21
21
21
21
23
22
14
9
12
15
15
19
29
35
33
29
26
24
21
19
17
14
11
7
3
-1
-6
-11
-16
-22
-29
-37
-44
-51
-55
-60
-66
-74
-84
-96
-109
-121
-129
-132
-130
-125
-115
-102
-90
-78
-66
-53
-41
-29
-18
-9
-3
0
-2
-6
-11
-15
-21
-25
-26
-27
-27
-25
-22
-16
-9
-2
5
11
16
20
22
23
23
23
23
23
24
25
26
27
28
31
33
34
36
37
39
40
42
44
46
48
50
53
54
55
56
57
57
58
60
62
64
65
67
68
70
70
71
72
73
74
75
76
76
77
77
77
76
76
74
72
70
69
68
66
66
64
63
61
59
57
55
54
52
49
48
46
45
42
40
39
38
37
35
34
34
33
32
32
31
30
30
29
28
28
27
27
27
27
26
25
25
25
23
22
21
21
21
21
21
20
20
21
21
21
21
21
21
20
20
20
20
20
20
20
19
19
